##TITLE= Mattson Instruments
##JCAMP_DX= 4.24
##OWNER= 
##ORIGIN= 
##DATA TYPE= INFRARED SPECTRUM
##YUNITS= % Transmittance
##XUNITS= 1/CM
##FIRSTX= 401.12781972
##FIRSTY= 38.18064880
##LASTX= 3999.70720246
##XFACTOR= 1.00000000
##YFACTOR= 0.00084707
##MINY= 0.00000102
##MAXY= 55.51226806
##DELTAX= 3.85699826
##NPOINTS= 934
##XYDATA= (X++(Y..Y))
401.12  45073 46242 46868 46935 46665 46717 
424.26  47489 48503 49059 49099 49124 49271 
447.41  48894 47073 43636 40010 38597 40499 
470.55  44543 48566 51179 52204 51983 51466 
493.69  51801 52739 52873 51861 50622 48801 
516.83  45073 40860 40251 45073 51755 57330 
539.97  60665 62616 63975 64894 65382 65534 
563.12  65515 65428 65223 64877 64438 63695 
586.26  62115 59753 57880 57698 58699 59428 
609.40  59565 59696 59754 59556 59777 60221 
632.54  58702 54406 50672 51195 55019 58095 
655.68  58477 57575 56846 56033 54806 53607 
678.83  51296 45073 35523 26877 23115 23648 
701.97  27149 34489 45073 53149 56277 55642 
725.11  53735 50495 45073 39463 33624 27370 
748.25  20735 15861 15936 22314 33224 45073 
771.39  53984 59202 61223 61684 61874 61928 
794.54  61315 59756 57789 56743 57641 59849 
817.68  61650 62238 62146 61849 61225 60428 
840.82  60018 60055 59936 59308 58468 57732 
863.96  57144 56837 56927 57023 56638 55790 
887.10  54259 51263 47323 45073 46399 49490 
910.25  51804 52944 53496 53094 51785 51224 
933.39  52546 54645 55886 56023 55562 54801 
956.53  54137 54026 54274 54237 53719 52922 
979.67  51998 51307 51357 51989 52435 52473 
1002.81  52590 52938 52980 52062 49960 47371 
1025.96  45965 46822 48671 49151 47869 46666 
1049.10  47001 48485 49851 50004 48289 45073 
1072.24  42577 42452 45073 48189 49993 49564 
1095.38  47976 47024 47381 48229 48561 48245 
1118.52  47697 46882 45073 42046 39025 37830 
1141.67  37964 36687 33195 30751 32641 37558 
1164.81  41094 40840 38344 36513 36221 35711 
1187.95  33235 29851 28660 31254 36068 40344 
1211.09  42657 43257 42920 42130 41000 39427 
1234.23  37248 34570 32008 30227 29225 28258 
1257.38  26453 23370 19309 15352 12760 11883 
1280.52  11707 10782 8701 6498 5364 5352 
1303.66  5998 7549 10228 12765 13576 13281 
1326.80  13901 15735 17130 17355 17915 20521 
1349.94  25090 30205 34597 37819 39872 40738 
1373.09  40773 41112 42684 45073 47032 48058 
1396.23  48393 48507 48679 48877 48955 48964 
1419.37  48806 47679 45073 42305 41216 42145 
1442.51  42706 40797 36650 32428 31205 33859 
1465.65  38045 40895 39903 34506 27211 20809 
1488.80  17520 18833 23809 30695 38426 45073 
1511.94  48732 50422 51415 52081 52475 52671 
1535.08  52539 52062 51768 51884 51917 51490 
1558.22  50777 50256 49804 48926 47365 45073 
1581.36  42397 37967 32475 28983 30657 37253 
1604.51  45073 49331 50555 50253 49608 48849 
1627.65  47995 47099 46118 45073 44489 43598 
1650.79  42198 40717 39624 38635 37301 35474 
1673.93  33323 30938 28184 25187 22387 19705 
1697.07  16319 11738 7147 3586 1091 0 
1720.22  733 3055 6972 12472 17517 19064 
1743.36  16533 11811 8440 9215 13453 18815 
1766.50  24053 28994 33300 36593 39203 41587 
1789.64  43631 45073 46106 47125 48202 49267 
1812.78  50291 51217 51951 52471 52859 53230 
1835.93  53571 53784 53880 54013 54218 54348 
1859.07  54326 54256 54297 54486 54680 54691 
1882.21  54510 54328 54314 54406 54456 54464 
1905.35  54538 54694 54805 54769 54655 54616 
1928.49  54685 54721 54563 54216 53878 53696 
1951.64  53561 53288 52972 52934 53298 53826 
1974.78  54253 54543 54775 54971 55109 55188 
1997.92  55223 55231 55236 55251 55263 55271 
2021.06  55299 55361 55428 55460 55450 55413 
2044.20  55362 55312 55270 55235 55210 55196 
2067.35  55185 55172 55164 55161 55148 55118 
2090.49  55069 55006 54940 54881 54829 54773 
2113.63  54702 54617 54535 54458 54366 54241 
2136.77  54106 54012 53976 53977 53985 53986 
2159.91  53987 53993 54002 54007 54008 54006 
2183.06  53997 53977 53948 53905 53850 53804 
2206.20  53786 53790 53794 53780 53738 53672 
2229.34  53602 53545 53494 53445 53402 53379 
2252.48  53362 53331 53274 53208 53147 53092 
2275.62  53044 53007 52968 52912 52830 52719 
2298.77  52564 52353 52085 51799 51787 51775 
2321.91  51763 51751 51739 51727 51715 51703 
2345.05  51691 51679 51667 51655 51643 51632 
2368.19  51620 51608 51596 51584 51572 51560 
2391.33  51594 51627 51683 51743 51789 51815 
2414.48  51811 51775 51730 51705 51712 51721 
2437.62  51719 51719 51731 51745 51749 51746 
2460.76  51737 51726 51703 51660 51605 51553 
2483.90  51519 51511 51533 51568 51592 51601 
2507.04  51594 51570 51531 51491 51461 51433 
2530.19  51397 51348 51300 51260 51223 51182 
2553.33  51134 51086 51048 51025 51005 50975 
2576.47  50929 50874 50825 50791 50776 50772 
2599.61  50746 50686 50608 50543 50494 50455 
2622.75  50431 50431 50454 50490 50523 50538 
2645.90  50525 50492 50453 50423 50398 50374 
2669.04  50347 50315 50283 50264 50265 50274 
2692.18  50275 50252 50208 50157 50108 50060 
2715.32  50007 49942 49857 49752 49648 49575 
2738.46  49547 49541 49515 49449 49367 49300 
2761.61  49248 49191 49107 48996 48874 48742 
2784.75  48592 48417 48229 48030 47818 47608 
2807.89  47408 47190 46918 46582 46173 45675 
2831.03  45073 44341 43376 42004 39964 37253 
2854.17  34626 33179 33051 33252 33159 33311 
2877.32  34208 35211 35394 34785 34107 33763 
2900.46  33580 33237 32540 31422 29867 28038 
2923.60  26569 26405 27851 29937 31155 30716 
2946.74  28967 26896 25511 25530 27289 30667 
2969.88  35006 39302 42730 45073 46416 47201 
2993.03  47597 47719 47607 47199 46535 45920 
3016.17  45647 45538 45073 44265 43403 42688 
3039.31  41631 39948 38327 37625 37840 38563 
3062.45  39783 41513 43217 44363 45073 45709 
3085.59  46357 46831 47073 47200 47375 47672 
3108.74  47992 48176 48222 48251 48324 48408 
3131.88  48473 48512 48517 48495 48459 48419 
3155.02  48387 48363 48313 48205 48047 47877 
3178.16  47747 47708 47773 47901 48023 48108 
3201.30  48164 48213 48254 48271 48262 48238 
3224.45  48203 48158 48121 48099 48077 48046 
3247.59  48020 48006 47995 47978 47954 47919 
3270.73  47879 47839 47790 47730 47673 47623 
3293.87  47576 47532 47502 47486 47471 47449 
3317.01  47430 47422 47413 47386 47324 47226 
3340.16  47108 47002 46917 46842 46783 46752 
3363.30  46737 46712 46667 46612 46551 46492 
3386.44  46439 46382 46292 46154 45973 45773 
3409.58  45572 45349 45073 44772 44572 44546 
3432.72  44626 44667 44557 44273 43889 43559 
3455.87  43443 43599 43942 44304 44574 44747 
3479.01  44846 44871 44837 44799 44808 44864 
3502.15  44935 45001 45073 45142 45173 45142 
3525.29  45073 45045 45073 45128 45171 45163 
3548.43  45138 45184 45307 45385 45326 45223 
3571.58  45244 45369 45433 45350 45184 45073 
3594.72  45073 45118 45131 45073 44958 44841 
3617.86  44832 44888 44826 44634 44611 44866 
3641.00  45071 44916 44516 44331 44520 44866 
3664.14  45117 45064 44723 44535 44747 45015 
3687.29  45006 44868 44940 45161 45248 45131 
3710.43  44990 44966 45032 45123 45177 45127 
3733.57  45012 44995 45062 44996 44769 44706 
3756.71  44936 45201 45276 45235 45261 45346 
3779.85  45379 45378 45445 45558 45564 45388 
3803.00  45202 45216 45338 45312 45070 44911 
3826.14  45057 45252 45138 44836 44864 45196 
3849.28  45313 45036 44846 44985 45082 44932 
3872.42  44818 44925 45022 44957 44922 45049 
3895.56  45135 45000 44829 44902 45113 45190 
3918.71  45089 44988 44955 44926 44906 44937 
3941.85  44962 44939 44926 44971 45030 45067 
3964.99  45090 45091 45069 45050 45055 45064 
3988.13  45073 45087 45094 45073 
##END= 
