##TITLE= Mattson Instruments
##JCAMP_DX= 4.24
##OWNER= 
##ORIGIN= 
##DATA TYPE= INFRARED SPECTRUM
##YUNITS= % Transmittance
##XUNITS= 1/CM
##FIRSTX= 401.12365566
##FIRSTY= 64.39160156
##LASTX= 3999.66568195
##XFACTOR= 1.00000000
##YFACTOR= 0.00067277
##MINY= 20.45435142
##MAXY= 64.54406738
##DELTAX= 3.85695822
##NPOINTS= 934
##XYDATA= (X++(Y..Y))
401.12  95710 94738 93791 92361 89593 86801 
424.26  86328 87440 87950 87589 88111 90569 
447.40  93597 95451 95936 95893 95826 95647 
470.54  95313 94940 94470 93862 93263 92650 
493.69  91864 91047 90054 87893 84457 82026 
516.83  82940 86279 88828 88928 87012 84032 
539.97  81635 81873 84508 86346 85267 82994 
563.11  82459 84294 86823 88227 87979 86631 
586.25  84421 80783 76352 74293 77220 83505 
609.39  89031 91647 92087 91649 90857 89756 
632.54  88044 85348 82301 80715 81620 83237 
655.68  82075 77340 72823 73756 80437 87052 
678.82  89626 88784 86861 84694 80604 73940 
701.96  68773 70604 79052 87512 90930 90446 
725.10  89295 88158 86296 83962 81361 77211 
748.24  70856 65293 65338 71804 79619 83444 
771.39  83180 81634 79301 75220 70948 69066 
794.53  68811 67805 67400 71332 79019 85012 
817.67  85898 83713 81244 77813 72210 67092 
840.81  66949 72224 78437 81501 81502 80594 
863.95  79729 78703 77476 76027 74281 72760 
887.10  72073 71615 70141 67443 64013 59493 
910.24  53734 48990 48409 52012 56546 59728 
933.38  62412 66124 70653 74742 77706 79615 
956.52  80328 79050 75783 72926 73431 77001 
979.66  80363 81448 80804 79296 77119 74522 
1002.80  71368 67443 64498 65321 69503 73206 
1025.95  73881 72446 70852 70400 71918 75048 
1049.09  77926 79126 78921 78125 77018 75576 
1072.23  73579 70757 67405 64200 61566 60296 
1095.37  61765 66068 70974 73971 74497 73572 
1118.51  72089 69948 66634 62747 60341 60693 
1141.65  62371 62876 61491 59180 56731 54219 
1164.80  51500 48298 44297 39573 34829 31286 
1187.94  30402 32988 38207 43770 47436 48323 
1211.08  46961 44628 43189 44865 50621 58484 
1234.22  65015 68676 70228 70209 68508 66161 
1257.36  64833 64368 63139 60660 57744 54638 
1280.51  51036 47360 44399 42142 40013 37862 
1303.65  36260 36232 38644 43316 48919 54173 
1326.79  58846 63359 67899 72073 75228 77012 
1349.93  77281 75572 71430 65659 60608 58411 
1373.07  59709 63805 68951 73192 75365 75256 
1396.21  73253 69991 66408 63308 60622 58310 
1419.36  57755 59859 62683 64229 64749 65369 
1442.50  65312 62716 57162 50589 47477 50402 
1465.64  57155 65092 70993 71904 70172 70090 
1488.78  73914 80159 84911 87036 87314 86657 
1511.92  86151 86144 86355 86659 87052 87364 
1535.06  87357 86737 85625 84682 83800 82313 
1558.21  80086 78220 76665 74543 72608 72564 
1581.35  73559 73431 71588 68062 62112 54526 
1604.49  50142 53466 62542 70958 74537 74704 
1627.63  74066 72809 70842 69179 68126 66863 
1650.77  64592 61451 58341 55313 51614 46776 
1673.91  41845 37915 34959 33076 32577 33241 
1697.06  35234 39259 44341 49119 53741 58094 
1720.20  61199 63056 64102 63883 61916 58526 
1743.34  53607 47249 41831 40032 41360 43709 
1766.48  45941 48449 52053 56396 60494 63937 
1789.62  66641 68498 69610 70341 71134 72339 
1812.77  73926 75445 76561 77283 77630 77681 
1835.91  77726 77976 78336 78597 78856 79407 
1859.05  80305 81302 82104 82638 82997 83208 
1882.19  83276 83331 83542 83927 84378 84824 
1905.33  85236 85587 85866 86086 86218 86241 
1928.47  86170 86054 85964 85988 86168 86466 
1951.62  86777 86926 86719 86215 85876 86147 
1974.76  86923 87711 88160 88171 87738 87091 
1997.90  86731 86931 87409 87730 87758 87562 
2021.04  87177 86690 86317 86208 86310 86459 
2044.18  86521 86472 86393 86390 86521 86756 
2067.32  86986 87093 87043 86908 86753 86604 
2090.47  86496 86477 86561 86749 87050 87436 
2113.61  87786 87977 87989 87887 87721 87500 
2136.75  87262 87115 87129 87254 87369 87390 
2159.89  87307 87156 86971 86764 86544 86324 
2183.03  86117 85926 85750 85595 85463 85365 
2206.18  85300 85233 85126 84989 84866 84776 
2229.32  84710 84667 84631 84552 84394 84190 
2252.46  84016 83906 83805 83644 83423 83193 
2275.60  82978 82752 82502 82269 82103 82005 
2298.74  81928 81829 81697 81542 81368 81171 
2321.88  80933 80654 80358 80031 79622 79227 
2345.03  79042 79034 78952 78601 78059 77534 
2368.17  77035 76559 76222 76030 75860 75646 
2391.31  75431 75290 75234 75206 75153 75061 
2414.45  74941 74793 74610 74403 74198 74015 
2437.59  73849 73678 73466 73188 72842 72460 
2460.73  72073 71695 71319 70940 70554 70148 
2483.88  69709 69241 68769 68307 67843 67359 
2507.02  66870 66413 66002 65612 65225 64840 
2530.16  64434 63960 63422 62932 62655 62688 
2553.30  62990 63409 63760 63901 63777 63413 
2576.44  62863 62222 61703 61613 62105 62987 
2599.58  63867 64468 64749 64801 64712 64541 
2622.73  64323 64066 63760 63414 63064 62741 
2645.87  62445 62180 61977 61846 61750 61673 
2669.01  61690 61848 62033 62051 61849 61552 
2692.15  61294 61153 61238 61717 62625 63736 
2715.29  64714 65381 65760 65944 65997 65970 
2738.44  65895 65757 65528 65226 64903 64624 
2761.58  64433 64331 64252 64116 63887 63582 
2784.72  63219 62801 62339 61855 61363 60865 
2807.86  60376 59930 59537 59168 58808 58500 
2831.00  58313 58285 58401 58584 58713 58696 
2854.14  58534 58289 58027 57817 57726 57776 
2877.29  57909 58049 58156 58238 58322 58430 
2900.43  58578 58776 59020 59271 59488 59685 
2923.57  59898 60080 60105 59934 59685 59502 
2946.71  59402 59296 59114 58881 58672 58535 
2969.85  58476 58481 58526 58575 58589 58559 
2992.99  58519 58503 58517 58535 58536 58517 
3016.14  58500 58524 58629 58821 59065 59308 
3039.28  59523 59728 59929 60083 60148 60160 
3062.42  60202 60300 60443 60657 60962 61292 
3085.56  61571 61846 62218 62678 63120 63507 
3108.70  63893 64305 64711 65085 65426 65720 
3131.85  65958 66162 66375 66628 66928 67263 
3154.99  67615 67985 68390 68825 69254 69655 
3178.13  70028 70372 70681 70972 71270 71556 
3201.27  71783 71971 72223 72612 73082 73531 
3224.41  73915 74261 74595 74922 75245 75571 
3247.55  75906 76245 76575 76897 77224 77551 
3270.70  77837 78060 78248 78459 78712 78967 
3293.84  79171 79323 79482 79692 79947 80250 
3316.98  80616 81018 81392 81718 82028 82337 
3340.12  82599 82785 82910 83018 83150 83321 
3363.26  83499 83625 83658 83619 83571 83557 
3386.40  83573 83592 83607 83629 83674 83768 
3409.55  83913 84045 84103 84116 84159 84239 
3432.69  84294 84295 84271 84273 84346 84503 
3455.83  84697 84853 84897 84810 84632 84359 
3478.97  83875 83150 82504 82396 82883 83554 
3502.11  84009 84219 84374 84560 84718 84782 
3525.25  84779 84819 84995 85292 85606 85801 
3548.40  85862 85964 86224 86483 86451 86164 
3571.54  86056 86300 86628 86747 86651 86580 
3594.68  86662 86814 86930 86955 86858 86720 
3617.82  86715 86838 86834 86619 86583 86961 
3640.96  87434 87547 87136 86686 86659 86969 
3664.11  87333 87360 86827 86353 86534 86931 
3687.25  86977 86747 86771 87072 87270 87165 
3710.39  86904 86741 86740 86836 86917 86876 
3733.53  86759 86746 86806 86675 86332 86206 
3756.67  86445 86719 86789 86750 86800 86903 
3779.81  86922 86920 87096 87442 87674 87494 
3802.96  87035 86821 86928 86966 86649 86316 
3826.10  86456 86839 86925 86660 86678 87047 
3849.24  87145 86670 86290 86414 86525 86293 
3872.38  86104 86248 86392 86259 86090 86147 
3895.52  86175 85807 85240 85043 85213 85412 
3918.66  85555 85765 85991 86090 86121 86184 
3941.81  86169 85952 85665 85504 85455 85434 
3964.95  85431 85466 85534 85605 85630 85567 
3988.09  85417 85257 85176 85201 
##END= 
