##TITLE= Mattson Instruments
##JCAMP_DX= 4.24
##OWNER= 
##ORIGIN= 
##DATA TYPE= INFRARED SPECTRUM
##YUNITS= % Transmittance
##XUNITS= 1/CM
##FIRSTX= 401.12365566
##FIRSTY= 60.95326232
##LASTX= 3999.66568195
##XFACTOR= 1.00000000
##YFACTOR= 0.00105287
##MINY= 7.80764102
##MAXY= 76.80676269
##DELTAX= 3.85695822
##NPOINTS= 934
##XYDATA= (X++(Y..Y))
401.12  57892 64742 69516 71614 71902 71067 
424.26  70204 70378 71445 72468 72925 72949 
447.40  72846 72747 72551 72182 71815 71576 
470.54  71217 70561 69922 69528 68949 67663 
493.69  65745 63282 59761 55384 52246 52301 
516.83  54488 55745 55063 54690 56799 60735 
539.97  64308 66499 67772 68619 69068 69187 
563.11  69147 68952 68532 67913 67124 66131 
586.25  64869 63162 60716 57401 53316 48518 
609.39  43450 40115 41331 47527 55732 62209 
632.54  65579 66972 67465 67219 66319 64105 
655.68  59195 52992 50723 55171 62130 65784 
678.82  65644 65042 65669 66624 67051 67126 
701.96  67069 66739 66135 65448 64595 63287 
725.10  61332 58029 52192 44883 40938 44347 
748.24  52933 60785 64693 65537 65322 64976 
771.39  63445 58963 53001 50570 53706 58278 
794.53  59960 59054 57528 55701 52759 47206 
817.67  38243 29591 28274 36236 47108 53858 
840.81  55659 55420 54825 53693 51583 48855 
863.95  46944 47110 48597 49278 48222 46192 
887.10  43743 40527 36743 33817 32903 33524 
910.24  34462 35419 36998 39482 42480 45534 
933.38  48389 50865 52915 54640 55973 56672 
956.52  56857 57131 57898 58888 59619 59998 
979.66  60202 60283 60200 59993 59720 59404 
1002.80  59068 58682 58174 57540 56777 55750 
1025.95  54291 52337 49755 46207 41360 35561 
1049.09  30731 29969 34921 43592 51786 56716 
1072.23  58573 58951 58777 57985 56521 54593 
1095.37  51268 44561 35811 31317 35767 45975 
1118.51  53909 55655 54279 53925 54992 55866 
1141.65  55792 54375 50912 46315 43961 46306 
1164.80  51494 55354 56125 55226 54172 53011 
1187.94  51527 49977 48459 46757 44883 43175 
1211.08  42006 41502 41254 40453 38610 35798 
1234.22  32098 27493 22406 17633 13911 12166 
1257.36  13459 17672 22943 27227 29487 28927 
1280.51  24907 18626 13148 10553 10363 11601 
1303.65  14969 21691 31058 40425 47492 51793 
1326.79  54057 55051 55387 55634 56083 56660 
1349.93  57134 57210 56650 55330 52844 48651 
1373.07  43577 40226 40356 42556 43825 42530 
1396.21  38887 34160 30611 30579 34114 38354 
1419.36  40021 38026 33391 27919 24012 24483 
1442.50  30201 37932 42380 40891 35376 29661 
1465.64  26480 27372 32905 41402 49339 54380 
1488.78  56904 58342 59292 59704 59710 59569 
1511.92  59431 59389 59344 59047 58488 57739 
1535.06  56575 54982 53202 50381 45157 38985 
1558.21  36349 39355 44510 47006 45130 40329 
1581.35  35973 35683 40211 46162 49653 50186 
1604.49  49448 48365 46944 45322 43642 41794 
1627.63  39772 37714 35616 33371 30926 28253 
1650.77  25415 22574 19757 16790 13645 10749 
1673.91  8787 8120 8467 9122 9424 9059 
1697.06  8182 7415 7436 8512 10783 14576 
1720.20  19852 25831 31690 37129 42043 46205 
1743.34  49545 52243 54401 55944 56926 57623 
1766.48  58247 58758 59061 59209 59294 59279 
1789.62  59077 58695 58227 57856 57850 58329 
1812.77  59037 59580 59821 59882 59857 59785 
1835.91  59727 59717 59732 59744 59711 59564 
1859.05  59342 59260 59452 59787 60038 60118 
1882.19  60079 59984 59849 59681 59499 59304 
1905.33  59008 58535 58062 57978 58441 59147 
1928.47  59674 59896 59940 59926 59896 59860 
1951.62  59793 59661 59470 59246 58992 58720 
1974.76  58479 58311 58212 58159 58138 58126 
1997.90  58087 57985 57804 57572 57358 57211 
2021.04  57147 57184 57355 57637 57928 58130 
2044.18  58230 58263 58251 58199 58104 57966 
2067.32  57796 57627 57477 57331 57165 56967 
2090.47  56734 56448 56113 55780 55525 55385 
2113.61  55321 55265 55168 55033 54891 54767 
2136.75  54631 54426 54131 53798 53506 53308 
2159.89  53225 53245 53312 53364 53366 53323 
2183.03  53253 53173 53087 52993 52878 52749 
2206.18  52620 52498 52374 52225 52040 51823 
2229.32  51588 51349 51117 50905 50726 50582 
2252.46  50455 50314 50151 49976 49798 49617 
2275.60  49427 49227 49016 48803 48595 48388 
2298.74  48173 47948 47710 47453 47162 46962 
2321.88  46762 46561 46361 46161 45961 45760 
2345.03  45560 45360 45159 44959 44759 44559 
2368.17  44358 44158 43958 43757 43557 43418 
2391.31  43213 42973 42725 42488 42261 42028 
2414.45  41775 41508 41236 40953 40645 40309 
2437.59  39957 39602 39249 38905 38569 38227 
2460.73  37859 37447 36976 36442 35860 35282 
2483.88  34780 34416 34195 34058 33910 33673 
2507.02  33328 32893 32367 31710 30909 30082 
2530.16  29463 29270 29531 30032 30475 30715 
2553.30  30836 30986 31180 31313 31311 31209 
2576.44  31074 30944 30845 30808 30822 30801 
2599.58  30647 30319 29852 29322 28815 28388 
2622.73  28039 27728 27435 27212 27164 27336 
2645.87  27619 27814 27828 27771 27804 27972 
2669.01  28218 28513 28889 29360 29861 30264 
2692.15  30469 30471 30332 30102 29802 29499 
2715.29  29300 29279 29418 29655 29951 30294 
2738.44  30653 30951 31096 31051 30839 30514 
2761.58  30116 29670 29187 28668 28105 27500 
2784.72  26878 26268 25691 25160 24695 24331 
2807.86  24106 24032 24077 24179 24298 24439 
2831.00  24606 24753 24805 24713 24479 24145 
2854.14  23765 23395 23079 22859 22774 22835 
2877.29  23011 23235 23435 23563 23615 23619 
2900.43  23602 23572 23539 23523 23538 23580 
2923.57  23635 23692 23737 23739 23666 23511 
2946.71  23306 23100 22931 22809 22721 22649 
2969.85  22597 22587 22634 22727 22837 22938 
2992.99  23014 23068 23120 23177 23236 23302 
3016.14  23385 23497 23636 23784 23947 24159 
3039.28  24430 24700 24889 24967 24928 24756 
3062.42  24511 24331 24334 24542 24856 25016 
3085.56  24780 24359 24448 25481 27085 28554 
3108.70  29611 30432 31187 31897 32579 33275 
3131.85  33989 34692 35362 35984 36554 37092 
3154.99  37620 38154 38707 39276 39838 40372 
3178.13  40877 41365 41850 42340 42830 43312 
3201.27  43783 44247 44702 45146 45576 46001 
3224.41  46434 46879 47325 47760 48179 48575 
3247.55  48944 49286 49607 49908 50187 50442 
3270.70  50682 50929 51194 51468 51729 51965 
3293.84  52174 52354 52509 52660 52813 52959 
3316.98  53090 53222 53377 53554 53728 53890 
3340.12  54042 54184 54301 54382 54434 54463 
3363.26  54471 54464 54459 54460 54451 54416 
3386.40  54367 54325 54290 54254 54219 54194 
3409.55  54168 54126 54069 54012 53955 53886 
3432.69  53800 53712 53634 53557 53468 53376 
3455.83  53284 53188 53083 52982 52896 52827 
3478.97  52782 52760 52749 52733 52708 52681 
3502.11  52651 52611 52565 52525 52490 52455 
3525.25  52420 52387 52351 52302 52249 52206 
3548.40  52176 52143 52097 52045 51998 51955 
3571.54  51913 51860 51795 51730 51683 51648 
3594.68  51610 51566 51528 51491 51438 51370 
3617.82  51303 51246 51189 51130 51080 51037 
3640.96  50984 50913 50834 50760 50696 50640 
3664.11  50585 50516 50428 50342 50279 50233 
3687.25  50186 50138 50098 50064 50020 49965 
3710.39  49910 49861 49807 49743 49672 49596 
3733.53  49522 49454 49383 49296 49212 49165 
3756.67  49158 49155 49132 49097 49062 49025 
3779.81  48983 48944 48905 48854 48782 48702 
3802.96  48633 48583 48536 48476 48409 48360 
3826.10  48333 48302 48241 48161 48092 48035 
3849.24  47971 47903 47859 47843 47819 47755 
3872.38  47670 47601 47554 47501 47430 47365 
3895.52  47325 47297 47261 47216 47163 47102 
3918.66  47032 46959 46894 46852 46840 46849 
3941.81  46859 46852 46825 46782 46735 46693 
3964.95  46651 46608 46567 46532 46502 46476 
3988.09  46452 46421 46384 46351 
##END= 
