##TITLE= Mattson Instruments
##JCAMP_DX= 4.24
##OWNER= 
##ORIGIN= 
##DATA TYPE= INFRARED SPECTRUM
##YUNITS= % Transmittance
##XUNITS= 1/CM
##FIRSTX= 401.12365566
##FIRSTY= 32.99067306
##LASTX= 3999.66568195
##XFACTOR= 1.00000000
##YFACTOR= 0.00076698
##MINY= 11.56374263
##MAXY= 61.82731628
##DELTAX= 3.85695822
##NPOINTS= 934
##XYDATA= (X++(Y..Y))
401.12  43013 39918 35712 29867 24628 26428 
424.26  39785 59780 75317 80610 79054 76259 
447.40  74183 72363 70652 69212 67925 66746 
470.54  65758 64896 64138 63600 63202 62673 
493.69  61961 61284 60779 60412 60164 59987 
516.83  59709 59269 58811 58278 57220 55563 
539.97  54285 54513 55922 56900 56600 55783 
563.11  55226 54514 53086 51590 51133 51655 
586.25  52085 51785 50993 50097 49013 47248 
609.39  44496 41318 38749 36994 35776 36104 
632.54  39855 46642 52872 55296 54329 52533 
655.68  51228 50151 49038 48008 47090 46220 
678.82  45342 44367 43293 42236 41284 40432 
701.96  39527 38323 36839 35284 33542 31437 
725.10  29216 26839 23826 20657 18338 16580 
748.24  15935 20132 30337 39634 40692 36478 
771.39  36291 43379 52686 58893 61144 60828 
794.53  59261 57400 55622 53846 52100 50505 
817.67  49004 47508 46009 44503 42907 41010 
840.81  38899 37417 37242 37606 37095 35430 
863.95  33402 31727 30706 30122 29411 29006 
887.10  30593 34522 38474 40416 41061 41853 
910.24  42630 42694 42109 40840 38605 36227 
933.38  35178 35381 35170 33413 30277 26855 
956.52  25640 29630 38699 48430 54435 56136 
979.66  55335 53578 51645 49077 44551 39286 
1002.80  37949 42758 49378 52288 51478 50345 
1025.95  50085 49679 48817 48041 47513 47091 
1049.09  46740 46446 46162 45820 45317 44687 
1072.23  44110 43628 43152 42643 42055 41362 
1095.37  40648 39738 38174 36123 34437 33509 
1118.51  32723 31157 28635 26518 27301 32024 
1141.65  38065 41231 40169 37259 35295 34869 
1164.80  35044 34977 34271 32716 30508 28395 
1187.94  26870 25448 23684 22616 23789 26723 
1211.08  28948 28861 27096 24898 22668 20340 
1234.22  18072 16200 15084 15100 16584 19714 
1257.36  23913 26999 26350 22778 22138 29895 
1280.51  43701 54168 54014 44579 33207 26754 
1303.65  27896 34757 42515 46885 47077 45064 
1326.79  42609 40036 36966 33127 29185 26877 
1349.93  26822 26881 25234 23966 26083 30102 
1373.07  31564 29107 25361 22590 20734 19183 
1396.21  17820 16580 15519 15076 15692 17486 
1419.36  20173 23110 26061 29737 34320 37752 
1442.50  37333 32949 26974 21895 20041 23594 
1465.64  31157 36232 34340 30737 34365 44924 
1488.78  53591 56001 56873 60705 65538 67964 
1511.92  68422 69097 70306 70920 70442 69454 
1535.06  68472 67178 65179 63070 61847 61692 
1558.21  61849 61290 59632 57504 55142 51123 
1581.35  45093 40943 42729 48005 50700 50037 
1604.49  50099 51499 50776 47730 46516 48945 
1627.63  52183 53519 53258 52718 52254 51669 
1650.77  50912 50004 48989 48001 47049 45896 
1673.91  44479 43290 42926 43268 43524 43171 
1697.06  42444 41823 41453 41187 40920 40642 
1720.20  40335 39965 39513 38996 38556 38396 
1743.34  38456 38349 37835 36986 35665 33549 
1766.48  31165 30069 31259 34038 37039 39563 
1789.62  41441 42529 42901 42912 42707 42195 
1812.77  41614 41541 42156 42983 43491 43619 
1835.91  43599 43557 43470 43299 43007 42592 
1859.05  42240 42272 42738 43201 43228 42926 
1882.19  42561 41879 40564 39308 39438 41203 
1905.33  43274 44303 44305 44074 43826 43085 
1928.47  41842 41109 41805 43458 44735 45053 
1951.62  44917 44842 44801 44690 44583 44509 
1974.76  44419 44330 44265 44187 44085 43977 
1997.90  43841 43655 43469 43348 43308 43314 
2021.04  43312 43268 43185 43055 42863 42649 
2044.18  42508 42477 42488 42444 42320 42182 
2067.32  42098 42055 41996 41921 41879 41892 
2090.47  41937 41975 41972 41901 41763 41586 
2113.61  41396 41202 40986 40756 40564 40446 
2136.75  40370 40266 40115 39955 39826 39737 
2159.89  39658 39545 39365 39113 38813 38524 
2183.03  38315 38206 38155 38113 38072 38049 
2206.18  38050 38045 37994 37880 37707 37480 
2229.32  37199 36897 36627 36428 36292 36178 
2252.46  36064 35956 35861 35756 35614 35433 
2275.60  35238 35044 34844 34617 34357 34093 
2298.74  33868 33700 33571 33445 33305 33153 
2321.88  32982 32775 32537 32292 32019 31674 
2345.03  31270 30882 30566 30330 30199 30211 
2368.17  30316 30371 30271 30052 29821 29639 
2391.31  29492 29331 29122 28871 28623 28419 
2414.45  28251 28068 27817 27494 27155 26869 
2437.59  26647 26443 26242 26093 26042 26066 
2460.73  26080 26010 25845 25625 25381 25113 
2483.88  24809 24468 24098 23735 23437 23222 
2507.02  23021 22745 22391 22046 21792 21614 
2530.16  21406 21125 20899 20920 21212 21571 
2553.30  21778 21773 21629 21433 21241 21078 
2576.44  20920 20738 20543 20362 20190 20011 
2599.58  19856 19757 19676 19541 19360 19232 
2622.73  19252 19402 19562 19613 19530 19360 
2645.87  19148 18927 18738 18620 18587 18616 
2669.01  18669 18702 18698 18673 18634 18554 
2692.15  18423 18287 18178 18079 17978 17900 
2715.29  17861 17831 17784 17706 17584 17430 
2738.44  17322 17347 17496 17648 17680 17561 
2761.58  17362 17172 17040 16961 16907 16856 
2784.72  16803 16762 16760 16813 16929 17120 
2807.86  17400 17766 18165 18496 18684 18732 
2831.00  18694 18597 18443 18245 18031 17827 
2854.14  17660 17557 17544 17633 17792 17937 
2877.29  18003 18014 18051 18224 18655 19368 
2900.43  20126 20555 20485 20083 19620 19216 
2923.57  18852 18502 18188 17948 17809 17799 
2946.71  17937 18157 18299 18254 18088 17959 
2969.85  17979 18202 18611 19017 19137 18894 
2992.99  18512 18242 18121 18077 18095 18192 
3016.14  18357 18566 18763 18831 18698 18480 
3039.28  18422 18636 18939 19009 18720 18295 
3062.42  18122 18411 19033 19697 20227 20602 
3085.56  20762 20652 20529 20812 21380 21488 
3108.70  20814 20107 20288 21318 22468 23313 
3131.85  23947 24522 25051 25532 25982 26409 
3154.99  26819 27222 27613 28003 28412 28834 
3178.13  29246 29643 30039 30466 30941 31400 
3201.27  31752 32030 32389 32901 33479 34026 
3224.41  34526 34986 35429 35921 36510 37144 
3247.55  37743 38291 38814 39315 39770 40181 
3270.70  40572 40958 41336 41696 42031 42350 
3293.84  42657 42939 43187 43412 43631 43841 
3316.98  44029 44195 44342 44464 44561 44649 
3340.12  44736 44804 44835 44837 44826 44798 
3363.26  44745 44685 44640 44594 44517 44415 
3386.40  44316 44236 44169 44108 44051 43993 
3409.55  43923 43849 43781 43718 43654 43592 
3432.69  43543 43510 43479 43443 43403 43368 
3455.83  43331 43282 43219 43158 43107 43056 
3478.97  43003 42960 42940 42931 42918 42898 
3502.11  42872 42844 42814 42789 42775 42765 
3525.25  42741 42700 42665 42654 42650 42622 
3548.40  42571 42514 42456 42392 42323 42260 
3571.54  42217 42203 42206 42200 42164 42097 
3594.68  42011 41933 41904 41945 42024 42074 
3617.82  42065 42026 41989 41947 41889 41845 
3640.96  41854 41884 41862 41768 41666 41623 
3664.11  41648 41704 41722 41654 41534 41452 
3687.25  41441 41443 41413 41377 41364 41357 
3710.39  41328 41278 41230 41202 41197 41194 
3733.53  41171 41141 41137 41144 41106 41003 
3756.67  40888 40809 40760 40709 40651 40596 
3779.81  40541 40468 40380 40303 40266 40256 
3802.96  40238 40194 40147 40103 40033 39928 
3826.10  39845 39854 39922 39944 39887 39835 
3849.24  39831 39792 39655 39503 39437 39434 
3872.38  39411 39352 39279 39195 39112 39060 
3895.52  39040 39004 38923 38833 38785 38774 
3918.66  38748 38666 38525 38330 38098 37917 
3941.81  37896 38042 38236 38367 38423 38443 
3964.95  38455 38469 38489 38504 38497 38470 
3988.09  38436 38407 38388 38378 
##END= 
