##TITLE= Mattson Instruments
##JCAMP_DX= 4.24
##OWNER= 
##ORIGIN= 
##DATA TYPE= INFRARED SPECTRUM
##YUNITS= % Transmittance
##XUNITS= 1/CM
##FIRSTX= 401.12365566
##FIRSTY= 68.50998687
##LASTX= 3999.66568195
##XFACTOR= 1.00000000
##YFACTOR= 0.00094116
##MINY= 14.02891921
##MAXY= 75.70698547
##DELTAX= 3.85695822
##NPOINTS= 934
##XYDATA= (X++(Y..Y))
401.12  72793 75415 75673 74886 75093 76513 
424.26  77609 77995 78442 79205 79878 80220 
447.40  80371 80439 80413 80342 80284 80114 
470.54  79653 79035 78677 78772 79118 79406 
493.69  79510 79501 79466 79434 79377 79261 
516.83  79060 78770 78432 78103 77778 77419 
539.97  77012 76534 75947 75231 74331 73118 
563.11  71536 69789 68272 67409 67477 68419 
586.25  69941 71758 73563 75011 75992 76641 
609.39  76994 77056 77027 77003 76867 76759 
632.54  76768 76483 75906 75522 74096 69311 
655.68  62799 60140 63944 70589 74368 74845 
678.82  74873 75093 74618 73218 70635 65770 
701.96  58803 53297 53924 61137 69728 74554 
725.10  75627 75716 75849 75730 75555 75156 
748.24  74057 73001 72029 68217 60233 53370 
771.39  54151 61343 67756 69604 69012 68279 
794.53  66358 61365 53940 47353 44914 47508 
817.67  53428 60033 65227 68072 68917 68812 
840.81  68549 68351 68220 68085 67832 67100 
863.95  64739 59615 53202 49732 51734 56787 
887.10  60574 61481 60426 58178 55270 53161 
910.24  53128 54535 55770 56364 57043 58285 
933.38  59903 61664 63495 65257 66798 68112 
956.52  69223 70098 70761 71313 71815 72256 
979.66  72617 72887 73041 73056 72957 72852 
1002.80  72850 72920 72940 72896 72900 72980 
1025.95  73022 72983 72961 73060 73268 73474 
1049.09  73551 73502 73452 73465 73455 73373 
1072.23  73250 73059 72807 72553 71937 70246 
1095.37  67643 65760 66098 68243 70473 71680 
1118.51  72007 72012 71934 71766 71537 71241 
1141.65  70694 69785 68552 66677 63702 60577 
1164.80  59808 62560 66689 69219 69614 69193 
1187.94  68735 68202 67672 67257 66824 66349 
1211.08  65905 65370 64688 63840 62265 59537 
1234.22  56828 56021 57044 57757 56808 54887 
1257.36  52875 50443 46811 41704 35378 28677 
1280.51  23068 19874 19272 20301 21903 23871 
1303.65  26875 31688 38343 45912 53020 58621 
1326.79  62476 64972 66573 67548 68056 68201 
1349.93  67999 67465 66687 65741 64653 63440 
1373.07  62037 60367 58571 56686 54057 49728 
1396.21  43842 38426 36292 38602 43846 48866 
1419.36  50649 49739 49591 51047 50878 45963 
1442.50  38618 34041 35181 41953 50797 57081 
1465.64  60408 62512 63946 64664 65084 65461 
1488.78  65784 66267 66994 67585 67766 67777 
1511.92  67950 68177 68249 68167 68046 67739 
1535.06  66871 65443 64350 63755 62743 60401 
1558.21  54945 45549 35578 30691 36744 50892 
1581.35  61688 65424 65991 66491 67013 67031 
1604.49  66701 66211 65618 65012 64379 63670 
1627.63  62900 61942 60731 59578 58621 57492 
1650.77  55851 53952 52139 50080 47061 42796 
1673.91  38289 34331 30297 25845 22119 19658 
1697.06  17691 15823 14905 15291 17314 22315 
1720.20  29833 37246 43933 50211 55232 58310 
1743.34  60142 61279 61895 62417 63199 64146 
1766.48  65002 65599 65876 65906 65828 65683 
1789.62  65417 65035 64701 64589 64725 65061 
1812.77  65587 66242 66832 67181 67320 67446 
1835.91  67616 67722 67745 67827 68047 68322 
1859.05  68548 68680 68739 68805 68942 69109 
1882.19  69215 69229 69204 69209 69246 69281 
1905.33  69312 69362 69428 69479 69515 69588 
1928.47  69711 69821 69854 69812 69745 69685 
1951.62  69616 69519 69387 69233 69084 68972 
1974.76  68925 68948 69028 69157 69335 69543 
1997.90  69735 69875 69953 69981 69989 70011 
2021.04  70064 70140 70218 70283 70338 70391 
2044.18  70442 70489 70521 70526 70507 70475 
2067.32  70443 70414 70382 70336 70273 70201 
2090.47  70133 70071 70013 69963 69906 69817 
2113.61  69690 69551 69419 69286 69146 69020 
2136.75  68915 68798 68623 68371 68074 67797 
2159.89  67621 67592 67672 67767 67810 67800 
2183.03  67769 67729 67674 67600 67524 67470 
2206.18  67446 67437 67426 67404 67364 67303 
2229.32  67226 67144 67062 66983 66909 66844 
2252.46  66786 66726 66652 66557 66433 66281 
2275.60  66116 65957 65803 65635 65446 65244 
2298.74  65043 64857 64694 64543 64382 64190 
2321.88  63949 63679 63446 63241 62987 62777 
2345.03  62821 63073 63269 63190 62889 62596 
2368.17  62342 62097 61942 61890 61839 61705 
2391.31  61480 61224 61006 60848 60712 60548 
2414.45  60343 60112 59864 59601 59327 59054 
2437.59  58794 58554 58329 58099 57838 57536 
2460.73  57199 56836 56436 56001 55555 55103 
2483.88  54606 54031 53394 52724 52036 51349 
2507.02  50693 50094 49569 49094 48594 47998 
2530.16  47314 46628 46035 45607 45407 45471 
2553.30  45791 46324 47016 47788 48527 49121 
2576.44  49521 49750 49856 49869 49807 49668 
2599.58  49453 49194 48947 48734 48509 48210 
2622.73  47822 47381 46933 46501 46080 45647 
2645.87  45184 44702 44247 43890 43733 43886 
2669.01  44425 45328 46467 47639 48644 49365 
2692.15  49794 50004 50099 50176 50275 50369 
2715.29  50423 50452 50477 50482 50433 50336 
2738.44  50224 50115 49997 49860 49698 49498 
2761.58  49222 48827 48293 47635 46884 46077 
2784.72  45246 44428 43654 42950 42356 41927 
2807.86  41682 41586 41574 41613 41687 41759 
2831.00  41754 41612 41351 41070 40873 40803 
2854.14  40826 40861 40813 40646 40422 40243 
2877.29  40158 40144 40185 40298 40499 40768 
2900.43  41079 41421 41779 42117 42403 42630 
2923.57  42805 42936 43007 42983 42837 42594 
2946.71  42311 42029 41757 41517 41359 41304 
2969.85  41310 41318 41302 41272 41244 41223 
2992.99  41218 41255 41352 41502 41698 41956 
3016.14  42280 42626 42925 43152 43327 43483 
3039.28  43633 43755 43824 43848 43847 43766 
3062.42  43492 42945 42030 40568 38624 37004 
3085.56  36922 38790 41671 44177 45710 46599 
3108.70  47326 48030 48669 49247 49786 50284 
3131.85  50750 51214 51691 52181 52667 53127 
3154.99  53588 54111 54710 55315 55865 56378 
3178.13  56878 57348 57761 58129 58476 58823 
3201.27  59175 59522 59852 60174 60503 60840 
3224.41  61172 61497 61812 62117 62416 62711 
3247.55  62985 63234 63473 63719 63971 64220 
3270.70  64464 64699 64924 65145 65362 65559 
3293.84  65721 65857 65986 66107 66212 66318 
3316.98  66439 66560 66667 66776 66894 66990 
3340.12  67046 67090 67124 67110 67059 67039 
3363.26  67069 67086 67042 66959 66893 66869 
3386.40  66879 66900 66922 66953 67001 67060 
3409.55  67116 67159 67196 67255 67361 67501 
3432.69  67614 67653 67632 67619 67664 67761 
3455.83  67864 67943 68000 68061 68138 68219 
3478.97  68271 68282 68279 68295 68329 68340 
3502.11  68307 68266 68289 68395 68531 68627 
3525.25  68676 68743 68878 69031 69092 69020 
3548.40  68931 68978 69120 69162 69028 68923 
3571.54  69073 69376 69591 69633 69618 69694 
3594.68  69870 70072 70230 70273 70181 70090 
3617.82  70177 70373 70422 70299 70342 70676 
3640.96  70969 70873 70463 70272 70497 70851 
3664.11  71060 70936 70496 70247 70505 70894 
3687.25  70994 70854 70888 71155 71351 71283 
3710.39  71074 70949 70937 70950 70910 70769 
3733.53  70600 70582 70708 70738 70603 70592 
3756.67  70834 71093 71171 71118 71085 71072 
3779.81  71004 70928 70964 71085 71100 70888 
3802.96  70655 70721 70985 71085 70860 70652 
3826.10  70797 71034 70941 70600 70569 70840 
3849.24  70921 70629 70397 70455 70506 70396 
3872.38  70313 70348 70344 70251 70228 70340 
3895.52  70428 70359 70274 70407 70683 70852 
3918.66  70827 70755 70752 70768 70746 70687 
3941.81  70588 70460 70373 70353 70364 70392 
3964.95  70426 70419 70357 70303 70306 70333 
3988.09  70340 70341 70372 70440 
##END= 
