##TITLE= Mattson Instruments
##JCAMP_DX= 4.24
##OWNER= 
##ORIGIN= 
##DATA TYPE= INFRARED SPECTRUM
##YUNITS= % Transmittance
##XUNITS= 1/CM
##FIRSTX= 401.12365566
##FIRSTY= 50.24467086
##LASTX= 3999.66568195
##XFACTOR= 1.00000000
##YFACTOR= 0.00036924
##MINY= 40.60343170
##MAXY= 64.80177307
##DELTAX= 3.85695822
##NPOINTS= 934
##XYDATA= (X++(Y..Y))
401.12  136072 130390 133155 137502 136467 134202 
424.26  134307 134428 133460 133373 134263 134477 
447.40  133953 133571 133286 132857 132580 132638 
470.54  132757 132471 131647 130776 130045 128778 
493.69  127153 127033 128998 130780 130816 130496 
516.83  131311 132463 132622 131915 131053 130220 
539.97  129493 129076 128906 128778 128653 128436 
563.11  127915 127092 126293 126034 126756 128321 
586.25  129892 130642 130263 128643 125865 123021 
609.39  122100 124022 127343 130108 131922 133295 
632.54  134353 134932 135072 134903 134477 133835 
655.68  133001 132205 131993 132439 132646 131968 
678.82  130828 129297 126431 122521 120277 121667 
701.96  124916 126747 126409 125474 124475 122014 
725.10  117652 114031 114766 120496 128113 133864 
748.24  136200 135972 135330 135990 137499 137935 
771.39  136848 135939 136270 136808 136625 136448 
794.53  137029 137798 137887 137249 136431 136047 
817.67  136386 137131 137661 137734 137532 137210 
840.81  136789 136316 135847 135397 134968 134516 
863.95  133926 133122 132150 131239 130823 131241 
887.10  132259 133163 133484 133346 133048 132718 
910.24  132395 131962 131082 129778 128903 129146 
933.38  129753 129401 128166 127226 126842 126362 
956.52  126010 126659 127853 128017 126796 125620 
979.66  125716 126649 127196 126973 126587 126289 
1002.80  125424 123620 121250 118168 114068 110982 
1025.95  112496 118908 125848 129173 128868 127120 
1049.09  124944 122019 118457 115463 114307 115046 
1072.23  116705 118711 121211 123791 125045 123948 
1095.37  121123 118304 116635 116288 117310 119612 
1118.51  122438 124702 125752 125426 123832 121595 
1141.65  119747 118833 118404 117483 115435 112854 
1164.80  111548 112811 115985 119516 122458 124121 
1187.94  124047 123332 123909 125817 127329 127959 
1211.08  128798 129954 130303 129565 128539 127774 
1234.22  127509 128205 129908 131522 131550 129589 
1257.36  126798 124837 124572 125695 127023 127106 
1280.51  125463 123591 123784 126599 130292 132954 
1303.65  134361 135427 136396 136289 134452 132113 
1326.79  131405 132890 135094 136394 136420 135770 
1349.93  135190 134940 134626 133711 132049 129971 
1373.07  128321 127945 128377 128003 126541 125921 
1396.21  127567 130250 131566 130438 127858 125968 
1419.36  126073 127249 127789 127548 127313 126971 
1442.50  126335 126496 128255 130332 130704 128756 
1465.64  125484 122736 122366 124836 128706 132218 
1488.78  134888 137167 139336 141192 142435 143059 
1511.92  143368 143600 143751 143821 143926 144046 
1535.06  144048 143945 143836 143698 143502 143323 
1558.21  143189 143059 142950 142827 142487 141887 
1581.35  141367 141157 141032 140848 140925 141456 
1604.49  142008 142097 141832 141594 141495 141433 
1627.63  141340 141204 141051 140926 140809 140628 
1650.77  140394 140165 139934 139667 139407 139231 
1673.91  139135 139006 138756 138431 138095 137703 
1697.06  137200 136552 135664 134557 133532 132690 
1720.20  131549 129760 127801 126352 125311 123717 
1743.34  120417 115322 110667 109962 114421 121425 
1766.48  127573 131950 135440 138420 140569 141937 
1789.62  142968 143870 144559 144961 145117 145149 
1812.77  145180 145221 145179 144990 144734 144590 
1835.91  144681 144951 145251 145501 145706 145861 
1859.05  145963 146037 146096 146124 146121 146108 
1882.19  146084 146039 145985 145897 145706 145405 
1905.33  145136 145069 145188 145309 145339 145374 
1928.47  145503 145659 145727 145699 145631 145541 
1951.62  145447 145366 145240 144990 144699 144597 
1974.76  144763 145004 145136 145207 145349 145552 
1997.90  145715 145800 145837 145840 145816 145787 
2021.04  145768 145753 145737 145717 145692 145666 
2044.18  145656 145664 145673 145659 145623 145590 
2067.32  145571 145537 145480 145430 145425 145454 
2090.47  145483 145483 145442 145365 145282 145214 
2113.61  145156 145104 145069 145056 145052 145044 
2136.75  145029 144999 144954 144919 144925 144973 
2159.89  145024 145046 145036 144999 144947 144908 
2183.03  144910 144946 144984 144997 144968 144896 
2206.18  144810 144756 144753 144775 144792 144789 
2229.32  144771 144751 144750 144761 144755 144721 
2252.46  144672 144597 144482 144358 144303 144336 
2275.60  144394 144411 144381 144319 144230 144133 
2298.74  144068 144041 143999 143892 143745 143632 
2321.88  143594 143587 143541 143429 143289 143191 
2345.03  143152 143083 142875 142562 142316 142275 
2368.17  142422 142658 142900 143081 143147 143074 
2391.31  142896 142678 142446 142166 141832 141557 
2414.45  141480 141569 141641 141544 141225 140679 
2437.59  140041 139626 139651 139969 140276 140431 
2460.73  140386 140074 139615 139351 139428 139578 
2483.88  139478 139063 138449 137829 137462 137487 
2507.02  137750 137957 137971 137843 137579 136995 
2530.16  135958 134714 133706 133091 132803 132955 
2553.30  133603 134243 134234 133584 132754 132029 
2576.44  131567 131540 131769 131858 131985 132714 
2599.58  133851 134436 134138 133770 134159 135203 
2622.73  136254 136883 137042 136819 136321 135686 
2645.87  135000 134203 133220 132233 131667 131769 
2669.01  132269 132529 132057 130965 129926 129558 
2692.15  129792 129959 129545 128720 128073 128005 
2715.29  128523 129520 131034 133054 135105 136240 
2738.44  135794 134237 132970 133001 134103 135467 
2761.58  136749 138057 139309 140142 140273 139595 
2784.72  138162 136405 135155 135061 135954 137010 
2807.86  137578 137709 137780 137861 137821 137827 
2831.00  138248 139063 139797 140106 140123 140180 
2854.14  140469 140918 141285 141431 141536 141941 
2877.29  142691 143366 143490 143040 142413 141911 
2900.43  141467 140927 140416 140192 140269 140360 
2923.57  140225 139994 140038 140482 140947 140884 
2946.71  140027 138356 136050 133891 133218 134673 
2969.85  137258 139463 141097 143039 145413 147213 
2992.99  147842 147975 148553 149631 150507 150547 
3016.14  149796 149012 149015 149876 150932 151581 
3039.28  151803 151902 152027 152051 151839 151565 
3062.42  151598 151985 152356 152438 152386 152449 
3085.56  152624 152761 152812 152829 152846 152816 
3108.70  152674 152432 152157 151859 151487 151025 
3131.85  150515 149996 149502 149076 148726 148423 
3154.99  148146 147897 147675 147455 147208 146932 
3178.13  146642 146336 145992 145601 145165 144658 
3201.27  144052 143354 142594 141785 140927 140029 
3224.41  139098 138121 137069 135906 134604 133174 
3247.55  131664 130128 128642 127363 126527 126350 
3270.70  126912 128116 129771 131666 133620 135504 
3293.84  137260 138901 140463 141953 143350 144652 
3316.98  145906 147157 148383 149527 150566 151500 
3340.12  152332 153059 153693 154257 154755 155192 
3363.26  155596 155969 156287 156517 156674 156799 
3386.40  156939 157157 157521 158037 158658 159312 
3409.55  159953 160550 161080 161534 161913 162220 
3432.69  162492 162756 162995 163175 163318 163481 
3455.83  163672 163828 163910 163936 163958 163981 
3478.97  163921 163714 163498 163560 164020 164659 
3502.11  165170 165464 165631 165750 165836 165892 
3525.25  165934 165978 166044 166129 166213 166291 
3548.40  166379 166473 166566 166661 166767 166881 
3571.54  167007 167150 167303 167428 167506 167558 
3594.68  167634 167750 167879 167990 168092 168218 
3617.82  168381 168545 168667 168763 168881 169029 
3640.96  169158 169232 169289 169379 169501 169600 
3664.11  169619 169585 169586 169666 169765 169797 
3687.25  169772 169770 169836 169932 170003 170047 
3710.39  170107 170188 170258 170293 170309 170339 
3733.53  170389 170420 170394 170344 170372 170515 
3756.67  170696 170845 170979 171120 171239 171313 
3779.81  171376 171462 171556 171633 171702 171792 
3802.96  171917 172045 172138 172202 172271 172348 
3826.10  172403 172437 172487 172562 172639 172700 
3849.24  172742 172778 172825 172878 172925 172964 
3872.38  173024 173120 173225 173291 173299 173266 
3895.52  173231 173220 173258 173352 173462 173534 
3918.66  173580 173667 173815 173961 174056 174119 
3941.81  174191 174292 174422 174538 174606 174642 
3964.95  174686 174741 174811 174932 175095 175208 
3988.09  175243 175288 175396 175496 
##END= 
