##TITLE= Mattson Instruments
##JCAMP_DX= 4.24
##OWNER= 
##ORIGIN= 
##DATA TYPE= INFRARED SPECTRUM
##YUNITS= % Transmittance
##XUNITS= 1/CM
##FIRSTX= 401.12365566
##FIRSTY= 68.34194946
##LASTX= 3999.66568195
##XFACTOR= 1.00000000
##YFACTOR= 0.00093088
##MINY= 7.81960201
##MAXY= 68.82447814
##DELTAX= 3.85695822
##NPOINTS= 934
##XYDATA= (X++(Y..Y))
401.12  73415 73278 73036 72568 71967 71630 
424.26  71617 71528 71183 70667 70010 69184 
447.40  68225 66838 64486 61823 60925 62701 
470.54  65644 67518 67764 67241 66423 65375 
493.69  64176 62606 60453 57745 53796 48014 
516.83  42854 42353 45577 46874 45114 46339 
539.97  54546 65351 72131 73934 73838 73534 
563.11  72976 72315 71719 71063 70441 69816 
586.25  68876 67781 66405 63476 58849 55226 
609.39  54667 55754 56961 59481 63710 67062 
632.54  67788 66894 65071 62150 59922 60930 
655.68  64227 66484 66561 65784 65252 64816 
678.82  64257 63705 63164 62498 61741 60998 
701.96  60026 58453 56679 55753 55898 56038 
725.10  55275 53835 52286 50733 49028 47107 
748.24  45001 42576 39471 35712 32409 30949 
771.39  31460 33027 35327 38772 43169 47308 
794.53  49976 50587 48796 44307 37806 31758 
817.67  29169 30526 32570 31471 27439 25083 
840.81  28336 35772 42310 45224 46554 49234 
863.95  53152 56303 57918 58716 59240 59510 
887.10  59654 59809 59852 59730 59586 59413 
910.24  59124 58843 58563 57915 56867 56123 
933.38  56221 56788 57007 56374 54985 53427 
956.52  51980 49949 46883 44377 44789 47929 
979.66  50950 51845 51171 50094 48659 46468 
1002.80  43519 39941 36047 32617 29925 27000 
1025.95  23563 21992 25010 31933 39704 46597 
1049.09  52547 57146 59697 60507 60507 60193 
1072.23  59702 59149 58541 57865 57129 56283 
1095.37  55456 54571 52534 48590 44770 44306 
1118.51  47107 49678 49887 48934 48411 48238 
1141.65  47813 47115 46320 45416 44319 42795 
1164.80  40300 36458 32232 30296 32801 38423 
1187.94  43109 44242 42638 40283 37935 35314 
1211.08  32115 28423 24988 22906 22415 22326 
1234.22  21116 18456 15785 15555 19532 27439 
1257.36  37024 45214 49655 49707 46008 39621 
1280.51  32816 29659 32494 37871 40143 39031 
1303.65  38817 40247 39021 33543 29008 30992 
1326.79  38567 46759 52223 54467 54244 52504 
1349.93  50298 48142 44931 39281 33326 31906 
1373.07  36389 42452 45440 45300 44100 42483 
1396.21  40036 36370 31599 27547 27150 31610 
1419.36  37702 40183 38348 34391 30233 28141 
1442.50  28841 30125 29824 27924 26049 25215 
1465.64  25357 26546 27922 27561 25665 23649 
1488.78  21704 19425 17089 14820 12076 9325 
1511.92  8400 9942 13489 17796 21115 23283 
1535.06  24899 25793 25590 25058 24509 23242 
1558.21  21230 20688 22775 27197 33599 39820 
1581.35  43179 42877 38966 32505 25687 20367 
1604.49  17699 18099 20618 23317 24616 24692 
1627.63  24569 24098 22236 19240 16723 15417 
1650.77  15162 15489 15976 16847 19048 23317 
1673.91  28492 33207 37652 41876 45127 47491 
1697.06  49871 52715 55206 56989 58544 60199 
1720.20  61731 62814 63472 63902 64427 65150 
1743.34  65948 66838 67765 68433 68719 68812 
1766.48  68918 69140 69511 69979 70443 70816 
1789.62  71029 71126 71295 71612 71939 72135 
1812.77  72190 72144 72015 71836 71707 71716 
1835.91  71807 71870 71889 71840 71499 70731 
1859.05  69894 69618 70115 70905 71299 70874 
1882.19  69626 68238 67805 68601 69738 70246 
1905.33  69869 69059 68542 68667 69080 69270 
1928.47  69281 69411 69613 69650 69572 69637 
1951.62  69890 70124 70152 69963 69674 69414 
1974.76  69215 69017 68757 68473 68281 68209 
1997.90  68122 67891 67600 67482 67642 67921 
2021.04  68061 67932 67566 67031 66385 65782 
2044.18  65499 65742 66416 67182 67746 68037 
2067.32  68122 68080 67982 67910 67920 68007 
2090.47  68114 68184 68204 68200 68192 68167 
2113.61  68105 68014 67912 67802 67669 67517 
2136.75  67393 67331 67293 67202 67055 66912 
2159.89  66805 66691 66528 66345 66212 66156 
2183.03  66125 66052 65920 65753 65578 65437 
2206.18  65382 65422 65487 65482 65380 65237 
2229.32  65130 65075 65014 64888 64698 64485 
2252.46  64281 64115 64029 64028 64035 63974 
2275.60  63877 63806 63721 63573 63443 63443 
2298.74  63533 63567 63477 63310 63140 62984 
2321.88  62799 62563 62341 62226 62234 62329 
2345.03  62470 62581 62568 62378 62119 61971 
2368.17  61951 61970 61991 62030 62082 62098 
2391.31  62028 61878 61713 61607 61599 61670 
2414.45  61767 61844 61888 61894 61849 61745 
2437.59  61581 61357 61073 60748 60420 60141 
2460.73  59972 59957 60073 60228 60337 60381 
2483.88  60389 60365 60286 60156 60023 59939 
2507.02  59906 59874 59789 59653 59522 59444 
2530.16  59393 59302 59158 59038 58999 58966 
2553.30  58833 58632 58514 58551 58649 58660 
2576.44  58515 58264 58030 57913 57920 57994 
2599.58  58077 58132 58122 58016 57823 57614 
2622.73  57492 57506 57612 57734 57844 57937 
2645.87  57987 57975 57922 57852 57762 57656 
2669.01  57546 57421 57249 57024 56799 56655 
2692.15  56646 56737 56819 56779 56579 56269 
2715.29  55944 55673 55467 55319 55241 55214 
2738.44  55170 55057 54893 54733 54584 54389 
2761.58  54093 53703 53256 52754 52219 51731 
2784.72  51338 51021 50772 50569 50305 49894 
2807.86  49325 48548 47547 46421 45050 43096 
2831.00  40979 40248 41932 44970 47365 48404 
2854.14  48728 48856 48737 48361 47864 47276 
2877.29  46636 46091 45655 45190 44658 44033 
2900.43  43130 41945 41001 40878 41461 41898 
2923.57  41330 39758 38325 38363 39917 41554 
2946.71  41762 40246 37994 36544 36919 38740 
2969.85  40633 41707 42084 42091 41797 41152 
2992.99  39837 37528 35048 34240 35800 38235 
3016.14  39729 40024 39800 39343 38549 37467 
3039.28  36273 35070 33867 32600 31213 29830 
3062.42  28737 28141 28024 28209 28527 28934 
3085.56  29458 30050 30589 31053 31531 31984 
3108.70  32147 31777 30880 29698 28565 27844 
3131.85  27853 28687 30111 31687 33019 33888 
3154.99  34241 34126 33639 32895 31999 31017 
3178.13  30000 29052 28349 28049 28215 28771 
3201.27  29503 30111 30355 30174 29664 28937 
3224.41  28021 26892 25614 24422 23632 23403 
3247.55  23614 24007 24409 24751 24957 24952 
3270.70  24791 24699 24951 25690 26883 28377 
3293.84  29991 31597 33153 34674 36202 37773 
3316.98  39367 40889 42239 43415 44483 45457 
3340.12  46296 47007 47655 48262 48804 49290 
3363.26  49745 50141 50427 50625 50817 51060 
3386.40  51332 51579 51784 51980 52182 52346 
3409.55  52430 52465 52523 52621 52721 52809 
3432.69  52907 52999 53035 53010 52987 53010 
3455.83  53061 53121 53201 53308 53422 53516 
3478.97  53581 53611 53595 53535 53461 53408 
3502.11  53388 53406 53463 53531 53555 53511 
3525.25  53449 53442 53497 53565 53605 53613 
3548.40  53624 53663 53703 53690 53606 53545 
3571.54  53610 53762 53890 53938 53945 53969 
3594.68  53997 53981 53908 53804 53705 53654 
3617.82  53664 53694 53705 53738 53857 54010 
3640.96  54094 54065 53986 53986 54066 54144 
3664.11  54148 54004 53730 53562 53587 53618 
3687.25  53563 53548 53665 53779 53757 53621 
3710.39  53494 53433 53400 53368 53314 53200 
3733.53  53040 52933 52893 52826 52753 52834 
3756.67  53036 53176 53173 53107 53079 53071 
3779.81  53053 53069 53150 53222 53180 53018 
3802.96  52899 52923 52962 52881 52746 52770 
3826.10  52947 53063 53012 52901 52875 52827 
3849.24  52592 52238 52060 52067 52082 52113 
3872.38  52245 52389 52419 52374 52387 52456 
3895.52  52460 52372 52332 52403 52441 52342 
3918.66  52168 52039 51960 51905 51914 51996 
3941.81  52087 52163 52238 52271 52210 52095 
3964.95  52005 51947 51887 51824 51767 51686 
3988.09  51563 51439 51377 51379 
##END= 
