##TITLE= Mattson Instruments
##JCAMP_DX= 4.24
##OWNER= 
##ORIGIN= 
##DATA TYPE= INFRARED SPECTRUM
##YUNITS= % Transmittance
##XUNITS= 1/CM
##FIRSTX= 401.12781972
##FIRSTY= 56.49190139
##LASTX= 3999.70720246
##XFACTOR= 1.00000000
##YFACTOR= 0.00109618
##MINY= 0.00000102
##MAXY= 71.83737182
##DELTAX= 3.85699826
##NPOINTS= 934
##XYDATA= (X++(Y..Y))
401.12  51535 52198 52503 52831 53411 54323 
424.26  55191 55763 55996 55901 55608 55018 
447.41  53884 52330 51110 50885 51294 51535 
470.55  52456 53166 53766 54184 54521 54880 
493.69  55207 55434 55607 55748 55785 55713 
516.83  55457 54804 53809 53174 53680 55164 
539.97  56681 57583 57987 58229 58389 58471 
563.12  58544 58669 58833 59002 59164 59277 
586.26  59337 59383 59444 59524 59620 59726 
609.40  59811 59871 59927 59990 60074 60153 
632.54  60195 60206 60225 60249 60269 60342 
655.68  60474 60546 60467 60369 60486 60764 
678.83  60982 61090 61188 61321 61449 61565 
701.97  61663 61733 61779 61829 61893 61957 
725.11  62021 62079 62122 62155 62185 62216 
748.25  62245 62275 62292 62293 62295 62293 
771.39  62287 62288 62293 62268 62212 62141 
794.54  62036 61916 61792 61600 61299 60894 
817.68  60285 59336 58096 56539 54369 51535 
840.82  48604 45339 41033 35416 29284 24131 
863.96  22027 25094 33329 43440 51535 56093 
887.10  58688 60382 61448 62085 62519 62773 
910.25  62856 62873 62871 62835 62788 62729 
933.39  62629 62508 62390 62248 62061 61838 
956.53  61565 61230 60846 60379 59779 59085 
979.67  58372 57614 56670 55369 53606 51535 
1002.81  49732 48175 46285 43363 39617 35854 
1025.96  31919 26330 18342 10037 5077 4653 
1049.10  5975 6078 6053 9526 17621 27619 
1072.24  36228 42131 45747 47890 48447 46418 
1095.38  42363 39757 41637 46795 51535 54071 
1118.52  55215 56014 56546 56511 55954 55363 
1141.67  54957 54147 52620 51535 51535 53267 
1164.81  54390 54228 53218 51535 48821 44719 
1187.95  39081 32024 24408 17928 14263 13613 
1211.09  14166 13713 12221 12125 15605 22172 
1234.23  29366 35110 38704 40213 39863 37854 
1257.38  34105 28477 21938 17036 16218 19711 
1280.52  25765 32583 39128 44634 48460 50542 
1303.66  51535 52439 53854 55635 57182 58214 
1326.80  58912 59381 59569 59602 59645 59599 
1349.94  59378 59006 58243 56853 54932 51535 
1373.09  44271 33601 25552 26046 33689 41539 
1396.23  45355 46896 48544 49846 49880 48589 
1419.37  45988 42333 38052 32789 26326 20090 
1442.51  15779 13282 12009 11917 12373 12236 
1465.65  12272 15001 21976 30578 37200 41833 
1488.80  45695 49018 51535 53380 54825 56106 
1511.94  57250 58061 58549 59083 59779 60264 
1535.08  60343 60297 60661 61279 61617 61546 
1558.22  61422 61655 61952 62017 61994 62133 
1581.36  62365 62520 62619 62762 62951 63115 
1604.51  63196 63178 63059 62880 62758 62754 
1627.65  62745 62601 62401 62275 62106 61721 
1650.79  61297 61215 61270 61081 60764 60782 
1673.93  61211 61600 61755 61914 62164 62250 
1697.07  62096 62092 62434 62673 62557 62372 
1720.22  62532 62823 62880 62774 62867 63217 
1743.36  63557 63817 64099 64410 64635 64700 
1766.50  64624 64521 64526 64627 64657 64509 
1789.64  64245 64035 64000 64134 64348 64568 
1812.78  64783 64954 64990 64894 64842 64944 
1835.93  65053 65031 64955 64973 65062 65089 
1859.07  64975 64727 64430 64160 63853 63412 
1882.21  62929 62644 62658 62835 63051 63295 
1905.35  63537 63726 63902 64161 64511 64877 
1928.49  65180 65371 65446 65457 65475 65513 
1951.64  65534 65523 65494 65465 65444 65433 
1974.78  65420 65380 65285 65137 64958 64738 
1997.92  64455 64154 63921 63782 63709 63743 
2021.06  63956 64284 64541 64601 64473 64220 
2044.20  63914 63622 63362 63096 62780 62423 
2067.35  62082 61826 61720 61807 62101 62563 
2090.49  63087 63541 63847 64003 64038 63964 
2113.63  63788 63535 63278 63129 63166 63342 
2136.77  63536 63694 63858 64058 64257 64390 
2159.91  64404 64279 64082 63973 64066 64302 
2183.06  64507 64566 64512 64470 64535 64694 
2206.20  64859 64957 64975 64940 64874 64771 
2229.34  64604 64370 64104 63860 63694 63669 
2252.48  63804 64019 64191 64271 64302 64311 
2275.62  64257 64089 63813 63511 63538 63565 
2298.77  63593 63620 63648 63675 63703 63730 
2321.91  63758 63785 63813 63840 63868 63895 
2345.05  63923 63950 63978 64005 64033 64060 
2368.19  64088 64115 64143 64170 64198 64225 
2391.33  64253 64077 63828 63553 63306 63135 
2414.48  63040 62976 62883 62739 62594 62512 
2437.62  62490 62467 62417 62355 62278 62158 
2460.76  61990 61777 61481 61063 60600 60241 
2483.90  60042 59945 59936 60082 60390 60724 
2507.04  60917 60934 60871 60832 60830 60792 
2530.19  60702 60675 60818 61079 61319 61493 
2553.33  61647 61798 61875 61787 61528 61230 
2576.47  61058 61051 61108 61116 61038 60872 
2599.61  60632 60392 60245 60225 60267 60275 
2622.75  60167 59888 59415 58802 58172 57619 
2645.90  57114 56513 55664 54504 53077 51535 
2669.04  50143 49225 48905 48932 48794 48032 
2692.18  46398 43733 39804 34467 28256 22599 
2715.32  19007 17718 17540 17148 16250 15280 
2738.46  14480 13622 12296 10182 7324 4248 
2761.61  1796 753 1526 3727 6020 6972 
2784.75  6366 5302 4702 4221 3047 1280 
2807.89  0 180 1942 4798 8198 11615 
2831.03  14293 15473 15186 14447 14253 14678 
2854.17  15340 16234 17506 18850 19856 20664 
2877.32  21700 22967 24011 24446 24247 23671 
2900.46  23070 22673 22418 22025 21238 19897 
2923.60  17890 15170 11942 8699 6063 4652 
2946.74  5018 7316 10763 13643 14476 13564 
2969.88  13023 14732 18213 21225 22681 24149 
2993.03  27874 33986 40506 45651 49144 51535 
3016.17  53237 54488 55427 56140 56680 57102 
3039.31  57438 57693 57886 58052 58205 58332 
3062.45  58440 58547 58654 58739 58797 58851 
3085.59  58915 58964 58978 58977 58994 59027 
3108.74  59053 59060 59062 59077 59103 59110 
3131.88  59059 58959 58842 58725 58600 58480 
3155.02  58392 58330 58254 58146 58020 57902 
3178.16  57804 57724 57647 57559 57467 57389 
3201.30  57329 57280 57233 57197 57194 57243 
3224.45  57334 57452 57585 57729 57866 57982 
3247.59  58070 58135 58180 58201 58186 58136 
3270.73  58080 58051 58043 58009 57927 57829 
3293.87  57751 57679 57595 57515 57468 57439 
3317.01  57378 57271 57152 57056 56975 56893 
3340.16  56816 56753 56695 56633 56562 56481 
3363.30  56400 56333 56281 56237 56202 56165 
3386.44  56114 56041 55971 55922 55906 55904 
3409.58  55889 55840 55761 55679 55606 55549 
3432.72  55529 55540 55558 55570 55601 55651 
3455.87  55683 55672 55644 55650 55695 55739 
3479.01  55763 55789 55844 55895 55906 55884 
3502.15  55886 55946 56027 56076 56067 56034 
3525.29  56049 56139 56243 56279 56234 56178 
3548.43  56195 56287 56330 56228 56055 56025 
3571.58  56193 56344 56317 56163 56055 56072 
3594.72  56140 56194 56203 56145 56020 55921 
3617.86  55936 55986 55962 55961 56158 56399 
3641.00  56398 56102 55816 55875 56137 56305 
3664.14  56242 55926 55548 55454 55612 55697 
3687.29  55659 55745 56018 56221 56192 56035 
3710.43  55945 55946 55926 55818 55601 55277 
3733.57  54969 54848 54854 54813 54761 54887 
3756.71  55120 55257 55262 55240 55226 55146 
3779.85  55004 54906 54852 54701 54362 53963 
3803.00  53784 53863 53928 53786 53550 53519 
3826.14  53684 53752 53610 53509 53642 53761 
3849.28  53616 53336 53233 53247 53182 53115 
3872.42  53218 53380 53423 53398 53446 53506 
3895.56  53407 53190 53123 53267 53370 53288 
3918.71  53132 53059 53042 53004 52936 52837 
3941.85  52690 52539 52454 52405 52341 52261 
3964.99  52178 52071 51932 51784 51646 51535 
3988.13  51471 51475 51535 51535 
##END= 
