##TITLE= Mattson Instruments
##JCAMP_DX= 4.24
##OWNER= 
##ORIGIN= 
##DATA TYPE= INFRARED SPECTRUM
##YUNITS= % Transmittance
##XUNITS= 1/CM
##FIRSTX= 401.12781972
##FIRSTY= 43.41803359
##LASTX= 3999.70720246
##XFACTOR= 1.00000000
##YFACTOR= 0.00108853
##MINY= 0.00000102
##MAXY= 71.33577728
##DELTAX= 3.85699826
##NPOINTS= 934
##XYDATA= (X++(Y..Y))
401.12  39886 41805 42866 43109 42946 42858 
424.26  42997 43152 42998 42433 41783 41109 
447.41  39877 38227 37597 38653 39671 39335 
470.55  39113 40796 43314 44359 43565 42225 
493.69  41324 40871 40495 39886 38378 36694 
516.83  34972 33200 31325 29322 27169 24857 
539.97  22479 20241 18377 17008 16168 16080 
563.12  17092 19195 21881 24665 27398 30044 
586.26  32513 34733 36703 38419 39886 41100 
609.40  42134 43036 43868 44693 45534 46370 
632.54  47177 47962 48722 49389 49964 50534 
655.68  51062 51377 51365 50988 50358 49974 
678.83  50457 51903 53601 54780 55449 55952 
701.97  56369 56669 56900 57083 57237 57488 
725.11  57897 58358 58753 59021 59120 59080 
748.25  58924 58480 57607 56567 55861 55696 
771.39  55593 54342 50876 46041 42843 43627 
794.54  47443 51330 53597 54619 55148 55299 
817.68  55007 54498 54180 54297 54669 54892 
840.82  54826 54640 54448 54193 53819 53311 
863.96  52679 51966 51195 50358 49450 48375 
887.10  46991 45281 43080 39886 35971 33417 
910.25  33953 36128 36329 32685 26465 20175 
933.39  15910 14851 16589 19398 22268 25879 
956.53  30842 36100 39886 41652 41497 39886 
979.67  37764 34687 32398 33721 39886 46993 
1002.81  52258 53854 53079 51652 50075 48345 
1025.96  46523 44541 42334 39886 37301 34096 
1049.10  30474 26217 21016 16671 16860 22838 
1072.24  30782 34903 32447 25587 19705 19444 
1095.38  25003 32258 36739 36842 33902 30889 
1118.52  30558 33298 37053 39886 41669 42825 
1141.67  43530 44039 44762 45605 46056 46011 
1164.81  45960 46348 47072 47709 48067 48273 
1187.95  48394 48329 48075 47667 46956 45891 
1211.09  44864 44301 44001 43261 41711 39886 
1234.23  38770 38740 39165 39222 38715 37934 
1257.38  37162 36558 36186 36025 36014 35971 
1280.52  35596 34898 34381 34390 34589 34394 
1303.66  33578 32258 30578 28496 25854 22662 
1326.80  19058 15222 12265 12586 17091 22589 
1349.94  24847 22932 18872 14620 10827 7903 
1373.09  6676 7794 10933 15005 19119 22485 
1396.23  23636 21992 20673 23768 30083 33363 
1419.37  30018 25625 26522 31104 34571 35373 
1442.51  35334 35395 35191 34583 33075 29608 
1465.65  24297 18659 15074 14570 15153 15616 
1488.80  17474 22059 27483 31891 35815 39886 
1511.94  43177 45085 46468 48216 49998 51105 
1535.08  51537 51883 52794 53831 54220 53903 
1558.22  53627 53912 53936 53239 52368 51931 
1581.36  51620 50840 49045 45404 39886 34155 
1604.51  31596 32781 35597 38088 39886 41510 
1627.65  42432 42611 42394 42073 41547 40720 
1650.79  39886 39470 39164 38496 37290 35771 
1673.93  34452 33377 32126 30624 29365 28480 
1697.07  27466 25738 23556 21341 18733 15240 
1720.22  11289 7588 4185 1388 0 101 
1743.36  1462 4489 9102 14029 18198 21439 
1766.50  23972 26188 28384 30433 32084 33243 
1789.64  33936 34487 35460 36977 38569 39886 
1812.78  41056 42250 43349 44294 45232 46173 
1835.93  46939 47562 48301 49260 50228 51026 
1859.07  51660 52209 52798 53567 54495 55395 
1882.21  56147 56828 57591 58463 59326 60071 
1905.35  60672 61130 61423 61576 61715 61975 
1928.49  62339 62675 62911 63096 63297 63489 
1951.64  63587 63505 63216 62841 62651 62827 
1974.78  63239 63521 63346 62664 61825 61416 
1997.92  61749 62556 63299 63640 63546 63187 
2021.06  62907 63065 63691 64435 64935 65107 
2044.20  65072 64989 64991 65120 65283 65359 
2067.35  65343 65327 65379 65477 65534 65453 
2090.49  65222 64942 64759 64725 64750 64697 
2113.63  64537 64401 64439 64643 64861 64960 
2136.77  64910 64735 64483 64188 63801 63235 
2159.91  62584 62167 62227 62683 63260 63759 
2183.06  64111 64312 64388 64394 64377 64352 
2206.20  64309 64215 64022 63667 63155 62630 
2229.34  62309 62298 62515 62806 63071 63268 
2252.48  63365 63333 63167 62906 62629 62430 
2275.62  62350 62330 62239 62025 61794 61665 
2298.77  61572 61540 61507 61474 61441 61408 
2321.91  61375 61342 61309 61277 61244 61211 
2345.05  61178 61145 61112 61079 61047 61014 
2368.19  60981 60948 60915 60882 60849 60817 
2391.33  60784 60751 60827 60945 61089 61193 
2414.48  61194 61066 60833 60542 60255 60016 
2437.62  59824 59663 59518 59307 58852 58145 
2460.76  57563 57527 57963 58380 58473 58371 
2483.90  58297 58269 58128 57726 57060 56383 
2507.04  56074 56289 56812 57306 57592 57658 
2530.19  57554 57330 57018 56706 56529 56541 
2553.33  56615 56610 56538 56500 56549 56656 
2576.47  56742 56710 56544 56368 56290 56261 
2599.61  56173 56035 55916 55842 55817 55829 
2622.75  55810 55669 55418 55169 55005 54898 
2645.90  54741 54483 54181 53942 53829 53814 
2669.04  53799 53651 53276 52660 51906 51184 
2692.18  50603 50053 49288 48316 47626 47780 
2715.32  48787 50089 51143 51820 52261 52584 
2738.46  52816 52941 52925 52758 52505 52265 
2761.61  52075 51895 51696 51480 51250 51000 
2784.75  50711 50345 49947 49717 49803 50069 
2807.89  50220 50102 49747 49233 48627 47893 
2831.03  46872 45572 44492 44235 44799 45578 
2854.17  46060 46214 46231 46215 46178 46082 
2877.32  45867 45514 45088 44659 44200 43627 
2900.46  42889 42010 41011 39886 38749 38016 
2923.60  38082 38839 39709 40227 40367 40336 
2946.74  40264 40098 39666 38854 37744 36573 
2969.88  35699 35537 36180 37095 37572 37427 
2993.03  36955 36453 35941 34960 32658 28806 
3016.17  24640 21854 21073 22031 24420 27642 
3039.31  30586 32561 33786 34573 34840 34636 
3062.45  34317 34035 33644 33087 32432 31683 
3085.59  30832 29931 29015 28093 27175 26217 
3108.74  25141 23935 22653 21343 20025 18685 
3131.88  17271 15748 14139 12467 10760 9141 
3155.02  7840 7158 7375 8596 10568 12741 
3178.16  14595 15928 16861 17596 18196 18551 
3201.30  18491 17900 16778 15238 13450 11562 
3224.45  9669 7854 6266 5076 4425 4336 
3247.59  4712 5400 6259 7178 8076 8920 
3270.73  9717 10469 11128 11598 11789 11664 
3293.87  11259 10642 9870 8985 8013 6947 
3317.01  5724 4327 2950 1930 1436 1330 
3340.16  1389 1488 1597 1711 1812 1941 
3363.30  2196 2704 3542 4721 6210 7932 
3386.44  9769 11629 13470 15279 17050 18813 
3409.58  20558 22238 23855 25436 26923 28267 
3432.72  29472 30305 30319 29612 29234 30146 
3455.87  32100 34135 35730 37002 38105 39045 
3479.01  39886 40681 41475 42198 42841 43400 
3502.15  43868 44294 44705 45060 45307 45490 
3525.29  45713 46040 46416 46714 46869 46947 
3548.43  47104 47379 47580 47545 47419 47557 
3571.58  47982 48319 48326 48103 47933 47986 
3594.72  48192 48381 48448 48376 48267 48319 
3617.86  48554 48725 48689 48724 49091 49392 
3641.00  49144 48418 47936 48254 48928 49297 
3664.14  49081 48367 47725 47811 48240 48297 
3687.29  48012 47949 48251 48402 48120 47669 
3710.43  47433 47409 47327 47068 46672 46258 
3733.57  46020 46007 45993 45825 45789 46126 
3756.71  46522 46658 46630 46690 46812 46815 
3779.85  46719 46707 46740 46543 46009 45434 
3803.00  45291 45490 45493 45086 44608 44538 
3826.14  44657 44428 43859 43573 43782 43845 
3849.28  43477 43130 43198 43258 42985 42688 
3872.42  42696 42768 42627 42470 42550 42642 
3895.56  42429 42073 42058 42362 42471 42204 
3918.71  41839 41652 41586 41536 41521 41504 
3941.85  41406 41263 41160 41061 40916 40756 
3964.99  40588 40369 40112 39909 39811 39784 
3988.13  39788 39813 39858 39886 
##END= 
