##TITLE= Mattson Instruments
##JCAMP_DX= 4.24
##OWNER= 
##ORIGIN= 
##DATA TYPE= INFRARED SPECTRUM
##YUNITS= % Transmittance
##XUNITS= 1/CM
##FIRSTX= 401.12365566
##FIRSTY= 28.42146682
##LASTX= 3999.66568195
##XFACTOR= 1.00000000
##YFACTOR= 0.00112888
##MINY= 2.70614743
##MAXY= 76.68679046
##DELTAX= 3.85695822
##NPOINTS= 934
##XYDATA= (X++(Y..Y))
401.12  25176 22393 21958 25012 31172 38319 
424.26  44547 49099 52304 55034 57605 59725 
447.40  61355 62758 63930 64744 65352 65932 
470.54  66353 66442 66295 66100 65826 65278 
493.69  64416 63457 62535 61513 60265 58816 
516.83  57142 55131 52725 49874 46409 42129 
539.97  36929 30874 24489 19088 16431 17686 
563.11  22630 29762 37195 43582 48519 52346 
586.25  55582 58448 60866 62738 64102 65031 
609.39  65558 65774 65866 65969 66052 65989 
632.54  65700 65211 64594 63883 63043 61995 
655.68  60665 59008 56993 54606 51897 48968 
678.82  45941 43029 40572 38947 38450 39232 
701.96  41246 44230 47727 51213 54337 56961 
725.10  58985 60356 61116 61216 60583 59427 
748.24  57722 54541 49420 44299 42155 43662 
771.39  46977 50606 54524 58638 62090 64303 
794.53  65362 65442 64718 63672 62957 62991 
817.67  63794 65062 66359 67312 67787 67930 
840.81  67931 67801 67541 67253 66904 66397 
863.95  65828 64927 62745 59321 56976 58017 
887.10  61587 64672 65729 65574 65302 65060 
910.24  64707 64425 64423 64586 64709 64786 
933.38  64582 63372 61097 59360 59773 61525 
956.52  62282 61349 60298 60552 61873 63230 
979.66  63978 64031 63596 62889 61904 60459 
1002.80  58258 54870 50445 46759 46339 49754 
1025.95  54795 58751 60395 59864 58229 57311 
1049.09  58336 60513 62069 62406 62181 61892 
1072.23  61488 60953 60415 59908 59425 58993 
1095.37  58556 58021 57417 56824 56254 55695 
1118.51  55115 54434 53609 52645 51450 49899 
1141.65  48179 46918 46725 47604 48925 50005 
1164.80  50563 50474 49348 47032 44595 43757 
1187.94  44730 45770 45492 44043 41335 36545 
1211.08  30849 27888 29388 32653 34140 33427 
1234.22  32375 32453 34097 36932 39773 41507 
1257.36  42145 42296 42163 41630 40594 38825 
1280.51  36226 33298 30687 28537 26942 26540 
1303.65  27800 30091 32198 33426 33626 32672 
1326.79  30733 28739 27639 27200 26244 24115 
1349.93  21313 18694 16622 15004 13637 12258 
1373.07  10573 8530 6446 4835 4278 5468 
1396.21  9005 14801 21774 28309 33074 35548 
1419.36  35989 34865 32320 28532 24446 21440 
1442.50  20101 19901 20075 20187 19954 19251 
1465.64  18344 17595 16995 16317 15583 15014 
1488.78  14599 14033 13078 11798 10395 8977 
1511.92  7558 6167 4878 3779 2965 2500 
1535.06  2397 2676 3435 4813 6906 9639 
1558.21  12493 14433 14496 12613 9738 7121 
1581.35  5442 4661 4519 4897 5699 6698 
1604.49  7674 8634 9709 10846 11749 12155 
1627.63  12085 11834 11769 12057 12439 12336 
1650.77  11344 9652 7887 6613 6148 6677 
1673.91  8245 10622 13406 16265 19063 21790 
1697.06  24448 27018 29467 31777 33954 36024 
1720.20  37997 39851 41570 43172 44683 46102 
1743.34  47407 48597 49711 50806 51910 52998 
1766.48  54034 55019 55982 56934 57862 58747 
1789.62  59580 60362 61102 61807 62480 63121 
1812.77  63724 64281 64777 65203 65558 65848 
1835.91  66089 66302 66501 66694 66878 67048 
1859.05  67199 67322 67406 67445 67435 67373 
1882.19  67256 67082 66845 66537 66149 65691 
1905.33  65193 64679 64146 63576 62984 62430 
1928.47  61988 61706 61588 61598 61671 61737 
1951.62  61742 61650 61445 61125 60704 60193 
1974.76  59608 58967 58276 57532 56752 55977 
1997.90  55254 54596 53983 53384 52775 52133 
2021.04  51444 50715 49978 49254 48549 47853 
2044.18  47155 46438 45687 44900 44079 43238 
2067.32  42433 41789 41455 41512 41932 42638 
2090.47  43562 44647 45828 47047 48263 49455 
2113.61  50606 51704 52740 53698 54558 55308 
2136.75  55939 56452 56856 57166 57381 57491 
2159.89  57485 57365 57161 56923 56688 56465 
2183.03  56243 56017 55791 55561 55298 54967 
2206.18  54565 54152 53804 53526 53239 52871 
2229.32  52425 51945 51450 50914 50303 49614 
2252.46  48882 48156 47467 46809 46159 45494 
2275.60  44788 44019 43225 42539 42072 41761 
2298.74  41403 40882 40272 39707 39220 38757 
2321.88  38275 37783 37306 36856 36427 36001 
2345.03  35548 35041 34472 33865 33251 32640 
2368.17  32025 31406 30798 30217 29665 29132 
2391.31  28605 28081 27551 27009 26454 25894 
2414.45  25330 24760 24189 23624 23058 22480 
2437.59  21908 21384 20933 20536 20153 19761 
2460.73  19372 19015 18703 18450 18296 18324 
2483.88  18639 19320 20372 21685 23044 24197 
2507.02  24953 25242 25119 24738 24263 23778 
2530.16  23279 22749 22206 21670 21123 20538 
2553.30  19911 19291 18759 18398 18242 18258 
2576.44  18370 18507 18619 18682 18690 18646 
2599.58  18557 18431 18285 18146 18028 17917 
2622.73  17789 17652 17553 17545 17649 17856 
2645.87  18142 18476 18823 19158 19457 19696 
2669.01  19866 19997 20140 20333 20579 20834 
2692.15  21029 21092 20977 20682 20256 19773 
2715.29  19303 18885 18534 18246 18015 17853 
2738.44  17781 17820 17962 18162 18340 18417 
2761.58  18363 18209 18013 17835 17701 17604 
2784.72  17519 17444 17398 17395 17432 17500 
2807.86  17594 17719 17860 17959 17959 17852 
2831.00  17703 17611 17645 17786 17952 18063 
2854.14  18035 17744 17185 16623 16308 16084 
2877.29  15633 15104 15033 15575 16255 16594 
2900.43  16562 16341 16020 15639 15259 14909 
2923.57  14572 14218 13782 13181 12407 11591 
2946.71  10996 10844 11056 11272 11210 10824 
2969.85  10151 9369 9016 9594 10841 11891 
2992.99  12222 12013 11609 11122 10572 10025 
3016.14  9518 9041 8604 8221 7890 7613 
3039.28  7403 7253 7160 7132 7167 7255 
3062.42  7387 7554 7745 7964 8223 8529 
3085.56  8883 9288 9739 10232 10771 11360 
3108.70  11986 12631 13283 13936 14582 15218 
3131.85  15856 16508 17184 17884 18602 19324 
3154.99  20035 20713 21349 21945 22507 23033 
3178.13  23519 23960 24366 24768 25201 25696 
3201.27  26268 26919 27644 28430 29252 30083 
3224.41  30897 31675 32396 33052 33661 34260 
3247.55  34878 35533 36234 36988 37802 38667 
3270.70  39565 40478 41386 42269 43114 43920 
3293.84  44692 45426 46110 46746 47342 47895 
3316.98  48389 48819 49197 49530 49822 50078 
3340.12  50310 50522 50714 50892 51062 51221 
3363.26  51365 51506 51658 51815 51970 52120 
3386.40  52267 52404 52531 52650 52762 52864 
3409.55  52961 53057 53149 53229 53293 53343 
3432.69  53378 53403 53417 53420 53410 53391 
3455.83  53374 53368 53381 53423 53505 53632 
3478.97  53801 54000 54222 54460 54707 54953 
3502.11  55196 55442 55698 55957 56210 56452 
3525.25  56691 56933 57171 57399 57621 57843 
3548.40  58064 58278 58475 58653 58825 59010 
3571.54  59212 59414 59603 59783 59970 60173 
3594.68  60384 60592 60793 60992 61190 61380 
3617.82  61555 61711 61858 62006 62158 62298 
3640.96  62409 62496 62583 62683 62789 62892 
3664.11  62982 63053 63107 63161 63226 63296 
3687.25  63358 63419 63485 63549 63594 63621 
3710.39  63645 63670 63693 63716 63743 63775 
3733.53  63805 63821 63815 63796 63779 63774 
3756.67  63774 63775 63784 63814 63865 63925 
3779.81  63980 64029 64077 64119 64148 64174 
3802.96  64217 64268 64294 64280 64248 64228 
3826.10  64227 64237 64258 64297 64337 64346 
3849.24  64317 64287 64284 64296 64304 64312 
3872.38  64325 64333 64339 64349 64357 64340 
3895.52  64305 64285 64299 64322 64328 64322 
3918.66  64329 64353 64384 64417 64460 64501 
3941.81  64519 64503 64466 64428 64401 64380 
3964.95  64352 64312 64267 64216 64164 64118 
3988.09  64086 64061 64053 64091 
##END= 
