##TITLE= Mattson Instruments
##JCAMP_DX= 4.24
##OWNER= 
##ORIGIN= 
##DATA TYPE= INFRARED SPECTRUM
##YUNITS= % Transmittance
##XUNITS= 1/CM
##FIRSTX= 401.12781972
##FIRSTY= 20.13109779
##LASTX= 3999.70720246
##XFACTOR= 1.00000000
##YFACTOR= 0.00071608
##MINY= 0.00000102
##MAXY= 46.92762374
##DELTAX= 3.85699826
##NPOINTS= 934
##XYDATA= (X++(Y..Y))
401.12  28112 25391 23165 22899 26244 32260 
424.26  37260 39654 40272 39987 39266 38376 
447.41  37353 35974 34056 31757 29236 26198 
470.55  22684 20182 20610 24271 29779 34931 
493.69  38090 39112 38712 37564 35924 33665 
516.83  30725 27536 24743 22262 19048 14289 
539.97  8775 4584 3404 5446 9690 14427 
563.12  17632 17969 15944 13684 13504 16527 
586.26  22066 28112 33107 36426 38723 40430 
609.40  41541 42154 42560 42908 43191 43378 
632.54  43430 43344 43245 43225 43165 42871 
655.68  42248 41047 38811 35788 33769 34268 
678.83  36773 39815 42205 43650 44459 44878 
701.97  45054 45128 45116 44990 44827 44657 
725.11  44422 44136 43742 43036 42009 40562 
748.25  37712 32808 28112 28112 32864 39095 
771.39  42863 43950 44188 44467 44707 44900 
794.54  45039 44964 44686 44364 44041 43653 
817.68  43096 42319 41540 41089 40887 40497 
840.82  39755 38920 37935 35985 32558 29056 
863.96  28112 30555 33813 35433 35722 35907 
887.10  35680 34507 33365 33203 33492 33862 
910.25  35293 38300 41552 43470 43976 43897 
933.39  43651 43145 42345 41387 40365 39405 
956.53  38928 39495 41097 42843 43767 43783 
979.67  43466 43099 42554 41864 41048 39552 
1002.81  37058 34838 34842 37120 39511 40255 
1025.96  39575 38464 37269 35694 33336 30350 
1049.10  28112 28112 30853 34210 36061 35908 
1072.24  34346 31751 28112 24197 21301 21182 
1095.38  24026 28112 31355 33197 33846 33668 
1118.52  33131 32775 32801 32946 32903 32619 
1141.67  32013 30620 28112 25776 25371 28112 
1164.81  32334 35833 37033 36160 34124 31572 
1187.95  29212 28112 28882 30418 31308 31585 
1211.09  32468 34356 36301 37467 37954 38119 
1234.23  38044 37729 37255 36690 36017 35150 
1257.38  34043 32678 30766 28112 25953 25831 
1280.52  28112 30528 31556 31126 30194 29215 
1303.66  28112 27054 25825 24407 22783 20871 
1326.80  18492 15488 11971 8762 7373 8922 
1349.94  13176 18337 21416 20371 16700 13685 
1373.09  12172 10583 8199 5765 3411 981 
1396.23  343 4412 12863 21753 28112 31311 
1419.37  32544 32471 31071 28112 24929 23717 
1442.51  24947 26236 25721 23831 22601 22591 
1465.65  22541 22491 23623 25415 25887 24631 
1488.80  22466 20418 18726 16798 14158 11180 
1511.94  8766 6824 4756 2825 1835 1538 
1535.08  1463 2293 4828 7499 8967 9018 
1558.22  7665 5957 4649 3456 2571 2569 
1581.36  3124 3570 3862 4167 4262 3773 
1604.51  2726 1537 558 0 67 738 
1627.65  1706 2870 4473 6613 9012 11701 
1650.79  15223 19359 22903 25651 28112 30624 
1673.93  33034 34929 36593 38647 40757 42126 
1697.07  42870 44155 46182 47708 48428 49216 
1720.22  50774 52219 52780 52782 53157 53997 
1743.36  54672 55253 56221 57493 58593 59291 
1766.50  59600 59785 60295 61152 61873 62154 
1789.64  62131 62202 62628 63284 63858 64257 
1812.78  64659 65061 65151 64876 64748 65088 
1835.93  65414 65282 64949 64971 65325 65534 
1859.07  65316 64761 64243 64161 64473 64746 
1882.21  64691 64417 64224 64226 64276 64186 
1905.35  63913 63538 63120 62664 62253 62014 
1928.49  61858 61518 60885 60140 59545 59171 
1951.64  58892 58553 58104 57620 57192 56837 
1974.78  56517 56178 55763 55295 54894 54660 
1997.92  54552 54469 54355 54209 54061 53973 
2021.06  54008 54165 54381 54596 54803 55023 
2044.20  55262 55510 55744 55940 56108 56307 
2067.35  56585 56929 57299 57662 57989 58260 
2090.49  58469 58612 58689 58734 58803 58926 
2113.63  59084 59231 59322 59342 59311 59253 
2136.77  59175 59069 58928 58752 58555 58350 
2159.91  58124 57857 57551 57231 56923 56650 
2183.06  56424 56238 56062 55852 55569 55219 
2206.20  54858 54558 54350 54216 54103 53965 
2229.34  53789 53590 53380 53170 52984 52849 
2252.48  52770 52705 52595 52412 52168 51868 
2275.62  51507 51106 50698 50303 49926 49566 
2298.77  49203 48799 48321 47765 47160 46561 
2321.91  46019 45579 45231 44868 44433 44070 
2345.05  43770 43470 43171 42871 42571 42272 
2368.19  41972 41672 41373 41073 41096 40927 
2391.33  40676 40465 40314 40176 39996 39755 
2414.48  39456 39104 38709 38302 37913 37562 
2437.62  37244 36931 36583 36172 35698 35184 
2460.76  34685 34263 33936 33679 33449 33238 
2483.90  33059 32920 32807 32690 32526 32259 
2507.04  31832 31200 30346 29286 28112 26944 
2530.19  26063 25622 25599 25826 26111 26320 
2553.33  26368 26221 25898 25470 25009 24553 
2576.47  24109 23650 23149 22608 22050 21484 
2599.61  20909 20370 19949 19729 19770 20120 
2622.75  20799 21765 22907 24066 25071 25779 
2645.90  26123 26118 25826 25312 24642 23897 
2669.04  23153 22466 21876 21417 21099 20877 
2692.18  20672 20437 20184 19955 19774 19646 
2715.32  19563 19509 19474 19464 19480 19520 
2738.46  19580 19641 19645 19515 19219 18773 
2761.61  18209 17579 16957 16398 15910 15494 
2784.75  15168 14929 14736 14527 14262 13928 
2807.89  13539 13126 12721 12348 12023 11739 
2831.03  11469 11191 10896 10579 10227 9804 
2854.17  9273 8662 8110 7776 7714 7820 
2877.32  7943 7997 7984 7905 7733 7493 
2900.46  7286 7184 7120 6935 6538 6018 
2923.60  5589 5376 5315 5265 5195 5190 
2946.74  5302 5352 4922 3774 2341 1526 
2969.88  1812 2830 3896 4676 5203 5568 
2993.03  5831 6057 6282 6510 6790 7212 
3016.17  7785 8407 8947 9348 9632 9844 
3039.31  10008 10136 10254 10400 10603 10889 
3062.45  11288 11809 12429 13091 13746 14343 
3085.59  14846 15243 15554 15819 16058 16272 
3108.74  16458 16626 16777 16905 17028 17170 
3131.88  17323 17438 17475 17453 17415 17358 
3155.02  17264 17156 17091 17090 17144 17269 
3178.16  17514 17895 18381 18923 19497 20112 
3201.30  20775 21477 22208 22975 23774 24598 
3224.45  25452 26342 27239 28112 28914 29746 
3247.59  30607 31477 32359 33271 34202 35115 
3270.73  35962 36727 37440 38137 38798 39367 
3293.87  39824 40203 40526 40768 40915 41028 
3317.01  41173 41324 41409 41421 41419 41436 
3340.16  41441 41383 41249 41066 40869 40669 
3363.30  40477 40312 40156 39968 39747 39529 
3386.44  39320 39099 38878 38684 38516 38333 
3409.58  38088 37774 37471 37286 37227 37220 
3432.72  37196 37130 37020 36937 36965 37059 
3455.87  37087 37022 36966 36977 36980 36896 
3479.01  36749 36646 36636 36648 36581 36424 
3502.15  36283 36287 36451 36597 36503 36182 
3525.29  35941 36035 36304 36385 36134 35782 
3548.43  35726 36016 36171 35767 35075 34952 
3571.58  35585 36147 36061 35524 35109 35114 
3594.72  35357 35588 35648 35415 34942 34660 
3617.86  34888 35226 35177 35067 35573 36260 
3641.00  36162 35055 33992 34281 35385 36146 
3664.14  36024 34929 33610 33497 34287 34585 
3687.29  34116 33811 34239 34629 34316 33550 
3710.43  33065 33030 33020 32793 32297 31487 
3733.57  30651 30306 30303 30056 29747 30161 
3756.71  31063 31650 31765 31826 32010 32037 
3779.85  31841 31762 31888 31755 30949 29799 
3803.00  29326 29720 29965 29366 28351 28112 
3826.14  28708 28860 28112 27499 27937 28497 
3849.28  28258 27655 27672 27927 27689 27282 
3872.42  27424 27838 27901 27770 27967 28277 
3895.56  28065 27433 27364 28115 28731 28656 
3918.71  28240 28036 28037 28082 28221 28374 
3941.85  28325 28188 28240 28435 28544 28563 
3964.99  28565 28507 28383 28312 28333 28342 
3988.13  28277 28193 28150 28112 
##END= 
