##TITLE= Mattson Instruments
##JCAMP_DX= 4.24
##OWNER= 
##ORIGIN= 
##DATA TYPE= INFRARED SPECTRUM
##YUNITS= % Transmittance
##XUNITS= 1/CM
##FIRSTX= 401.12781972
##FIRSTY= 26.49603080
##LASTX= 3999.70720246
##XFACTOR= 1.00000000
##YFACTOR= 0.00051238
##MINY= 0.00000102
##MAXY= 33.57857131
##DELTAX= 3.85699826
##NPOINTS= 934
##XYDATA= (X++(Y..Y))
401.12  51711 52414 52636 52285 51737 51484 
424.26  51614 51773 51749 51585 51448 51413 
447.41  51323 50992 50539 50301 50309 50251 
470.55  50016 49708 49244 48506 47789 47523 
493.69  47642 47764 47800 47884 47992 48049 
516.83  48164 48367 48362 47999 47759 48208 
539.97  49202 50164 50927 51699 52488 53144 
563.12  53618 53701 52851 50749 47982 46018 
586.26  46253 48708 51711 53504 53723 53522 
609.40  53910 54968 56254 57362 58135 58617 
632.54  58916 59017 58766 58153 57670 57933 
655.68  58725 59029 58414 57741 58070 59072 
678.83  59746 59885 60046 60406 60355 59568 
701.97  58771 58745 59263 59761 60285 60978 
725.11  61481 61602 61791 62333 62872 63066 
748.25  63062 63087 63123 63102 63073 63060 
771.39  62999 62885 62831 62731 62206 61145 
794.54  60097 59771 60282 61044 61286 60638 
817.68  59251 57450 55724 55061 56293 58656 
840.82  60212 60313 60359 61512 63038 63720 
863.96  63606 63373 62932 61799 60331 59349 
887.10  58874 58348 57665 56941 56170 56037 
910.25  57423 59257 59224 57372 56279 57007 
933.39  57893 57814 57820 58798 59631 58498 
956.53  55215 51711 50083 50724 52222 53143 
979.67  53094 52245 49986 44672 36453 29848 
1002.81  29861 35410 40837 43456 44453 43827 
1025.96  41042 39220 42001 47645 51711 53730 
1049.10  53921 51711 46124 41653 42046 46764 
1072.24  51711 53380 51711 50649 51711 53730 
1095.38  54831 53701 51711 50314 49106 47319 
1118.52  45707 45797 48104 51711 55386 57473 
1141.67  57940 57866 57887 57240 54979 51711 
1164.81  48779 48779 51711 55778 58025 57550 
1187.95  55531 53391 51711 50836 51711 53823 
1211.09  54908 53815 51711 50319 49180 47239 
1234.23  44321 41403 40015 41276 44593 47751 
1257.38  49153 49445 50200 51711 52652 51711 
1280.52  48979 46286 45933 48311 51711 54424 
1303.66  56234 57272 57336 56397 54958 53461 
1326.80  51711 49502 47478 47161 48531 49238 
1349.94  47926 46195 45945 46327 45340 43353 
1373.09  42247 42467 42985 43162 42803 41152 
1396.23  37759 34292 33550 36174 40356 44268 
1419.37  46784 47259 45899 43589 41143 38530 
1442.51  35441 32773 32240 34848 39229 42543 
1465.65  44247 45697 48204 51711 54783 56859 
1488.80  58098 58974 59685 59919 59562 59265 
1511.94  59504 59735 59627 59719 60288 60631 
1535.08  60204 59368 59341 60025 60265 59697 
1558.22  59043 59255 59691 59597 59114 58785 
1581.36  58664 58401 57894 57282 56636 55907 
1604.51  55066 54104 52974 51711 50728 50114 
1627.65  49665 49087 48457 48053 47731 47164 
1650.79  46624 46777 47185 47083 46415 45511 
1673.93  44511 43333 42246 41550 40731 38958 
1697.07  35356 29562 23314 17380 10592 3564 
1720.22  0 921 5000 12109 20946 28823 
1743.36  35568 41971 47547 51711 54612 56489 
1766.50  57510 58231 59108 60049 60825 61356 
1789.64  61691 62052 62604 63172 63518 63697 
1812.78  63916 64178 64266 64112 64026 64270 
1835.93  64574 64603 64490 64623 65006 65317 
1859.07  65363 65183 64991 65026 65283 65507 
1882.21  65534 65425 65351 65393 65490 65531 
1905.35  65480 65389 65289 65150 65018 65014 
1928.49  65126 65196 65121 64976 64903 64948 
1951.64  65038 65091 65080 65035 64999 64997 
1974.78  65012 64987 64873 64702 64574 64550 
1997.92  64585 64605 64591 64567 64542 64524 
2021.06  64520 64513 64480 64432 64407 64412 
2044.20  64420 64408 64371 64311 64246 64205 
2067.35  64207 64230 64237 64212 64167 64124 
2090.49  64101 64114 64155 64188 64189 64167 
2113.63  64125 64065 64011 63998 64028 64073 
2136.77  64108 64131 64130 64103 64060 64015 
2159.91  63973 63931 63894 63876 63882 63893 
2183.06  63883 63857 63832 63820 63811 63797 
2206.20  63774 63744 63706 63663 63621 63582 
2229.34  63534 63478 63427 63393 63364 63332 
2252.48  63287 63216 63133 63071 63050 63063 
2275.62  63092 63094 63001 62783 62462 62070 
2298.77  62074 62077 62080 62084 62087 62090 
2321.91  62094 62097 62100 62104 62107 62110 
2345.05  62114 62117 62120 62124 62127 62130 
2368.19  62134 62137 62140 62144 62147 62150 
2391.33  62154 62157 62160 62164 62167 62170 
2414.48  62174 62177 62180 62184 62187 62190 
2437.62  62087 62021 62012 62026 62018 61976 
2460.76  61928 61904 61895 61882 61843 61783 
2483.90  61715 61656 61610 61556 61488 61429 
2507.04  61414 61429 61440 61441 61446 61466 
2530.19  61480 61475 61455 61422 61359 61247 
2553.33  61097 60919 60734 60591 60539 60572 
2576.47  60612 60582 60445 60224 59989 59817 
2599.61  59722 59626 59466 59277 59107 58951 
2622.75  58805 58722 58708 58672 58551 58388 
2645.90  58244 58095 57928 57819 57833 57913 
2669.04  57903 57720 57466 57336 57401 57547 
2692.18  57621 57595 57525 57436 57304 57129 
2715.32  56948 56794 56681 56617 56581 56545 
2738.46  56509 56473 56394 56246 56057 55849 
2761.61  55592 55280 54923 54489 53942 53291 
2784.75  52545 51711 50888 50127 49364 48471 
2807.89  47296 45598 43312 40859 38686 36641 
2831.03  34406 32169 30171 28114 25967 24755 
2854.17  25421 27355 28917 28972 27335 24570 
2877.32  21938 20759 21246 22345 22839 22206 
2900.46  20533 18289 16239 14868 13880 12915 
2923.60  12537 13458 14966 15563 15297 16070 
2946.74  19241 23792 27435 29050 29423 29763 
2969.88  30295 30754 31612 33907 37821 42265 
2993.03  46004 48649 50451 51711 52622 53355 
3016.17  53992 54512 54911 55236 55529 55764 
3039.31  55913 56000 56068 56103 56060 55945 
3062.45  55807 55660 55459 55170 54821 54451 
3085.59  54063 53641 53210 52799 52414 52048 
3108.74  51711 51434 51219 51085 51027 50998 
3131.88  50953 50910 50900 50900 50863 50810 
3155.02  50799 50825 50817 50749 50681 50664 
3178.16  50670 50649 50610 50586 50567 50517 
3201.30  50444 50405 50392 50328 50213 50169 
3224.45  50240 50306 50269 50187 50151 50141 
3247.59  50085 49989 49922 49913 49917 49882 
3270.73  49815 49754 49717 49689 49666 49640 
3293.87  49597 49516 49384 49196 48978 48773 
3317.01  48577 48349 48055 47708 47336 46964 
3340.16  46596 46215 45808 45384 44921 44401 
3363.30  43857 43359 42913 42469 42002 41538 
3386.44  41098 40670 40237 39800 39360 38898 
3409.58  38341 37610 36762 36040 35688 35699 
3432.72  35805 35745 35490 35189 34961 34783 
3455.87  34587 34367 34132 33850 33478 33010 
3479.01  32464 31824 31079 30236 29318 28343 
3502.15  27359 26414 25481 24484 23449 22641 
3525.29  22491 23246 24699 26455 28239 29966 
3548.43  31696 33469 35172 36684 38136 39842 
3571.58  41791 43601 45051 46223 47340 48526 
3594.72  49705 50780 51711 52311 52664 52930 
3617.86  53336 53800 54091 54335 54886 55567 
3641.00  55873 55599 55236 55553 56387 57051 
3664.14  57154 56657 56047 56114 56669 56949 
3687.29  56799 56736 57073 57380 57259 56878 
3710.43  56721 56856 56939 56804 56515 56153 
3733.57  55849 55793 55876 55810 55687 55926 
3756.71  56427 56765 56841 56869 56955 56965 
3779.85  56857 56809 56874 56803 56368 55751 
3803.00  55519 55777 55947 55635 55076 54894 
3826.14  55072 55013 54542 54222 54487 54764 
3849.28  54526 54055 54001 54148 53982 53658 
3872.42  53663 53860 53808 53570 53541 53659 
3895.56  53510 53077 52913 53248 53563 53491 
3918.71  53190 53012 52997 53003 53006 52997 
3941.85  52911 52782 52727 52750 52762 52725 
3964.99  52655 52574 52497 52434 52339 52173 
3988.13  51989 51868 51801 51711 
##END= 
