##TITLE= Mattson Instruments
##JCAMP_DX= 4.24
##OWNER= 
##ORIGIN= 
##DATA TYPE= INFRARED SPECTRUM
##YUNITS= % Transmittance
##XUNITS= 1/CM
##FIRSTX= 401.12365566
##FIRSTY= 78.97493743
##LASTX= 3999.66568195
##XFACTOR= 1.00000000
##YFACTOR= 0.00084705
##MINY= 24.78137779
##MAXY= 80.29226684
##DELTAX= 3.85695822
##NPOINTS= 934
##XYDATA= (X++(Y..Y))
401.12  93234 93247 93088 92768 92447 92449 
424.26  92792 93105 93166 93027 92793 92447 
447.40  92027 91725 91588 91405 91114 90957 
470.54  91035 91090 90861 90270 89298 88259 
493.69  87831 88289 89103 89517 89399 89065 
516.83  88620 87964 87216 86703 86549 86430 
539.97  85997 85437 85271 85593 85923 85842 
563.11  85337 84596 83777 82752 81089 78728 
586.25  76535 75607 76133 77350 78555 79705 
609.39  81089 82805 84644 86254 87130 86777 
632.54  85551 85022 86439 89025 91089 92100 
655.68  92641 93132 93552 93874 94123 94292 
678.82  94335 94158 93849 93796 94121 94489 
701.96  94662 94658 94368 93769 93354 93576 
725.10  94180 94625 94559 93626 91885 90519 
748.24  90893 92735 94351 94789 94660 94632 
771.39  94480 94037 93670 93054 91016 87467 
794.53  83974 81892 81503 82944 85841 88379 
817.67  88892 87824 86407 84756 82845 81686 
840.81  82165 84096 86953 90120 92525 93478 
863.95  93493 93177 92051 89708 87457 87319 
887.10  89471 91970 93207 93380 93159 92458 
910.24  91261 90330 90187 90148 88995 86571 
933.38  84451 84194 84843 83952 81564 80447 
956.52  81670 83286 84089 84899 85640 84964 
979.66  83132 81887 81578 81162 80181 78410 
1002.80  75179 71396 69996 71654 72433 69082 
1025.95  64634 64890 70420 75939 77171 74433 
1049.09  69760 64045 57826 52473 49265 48461 
1072.23  50089 54449 60818 66755 70189 71620 
1095.37  73030 75221 77579 79628 81455 83151 
1118.51  84600 85263 84233 81427 78573 77950 
1141.65  80187 83840 86883 88214 88175 87828 
1164.80  87548 86844 85764 85263 85426 84764 
1187.94  82472 80236 80370 82781 84883 84373 
1211.08  81619 79244 79338 81352 83215 83693 
1234.22  82576 79907 76830 75705 77229 79070 
1257.36  79218 78809 79851 82146 84114 84917 
1280.51  84453 82744 80359 78243 76412 73965 
1303.65  71031 69607 71435 75638 79506 81429 
1326.79  81944 82135 82419 82579 82180 81195 
1349.93  79906 77971 74654 70557 67476 65690 
1373.07  64262 64095 67226 73095 78664 81544 
1396.21  81497 79333 76138 73463 72301 72422 
1419.36  72835 72586 71287 69018 66829 66460 
1442.50  67821 69157 69482 68907 68000 67427 
1465.64  67763 69838 74353 79783 84019 87009 
1488.78  89061 90227 90974 91577 91858 91948 
1511.92  92210 92463 92500 92577 92867 93128 
1535.06  93178 93002 92906 93120 93357 93314 
1558.21  93017 92951 93096 93115 92967 92833 
1581.35  92773 92673 92468 92191 91927 91716 
1604.49  91553 91414 91244 90963 90586 90228 
1627.63  89859 89365 88842 88509 88258 87790 
1650.77  86995 86038 84913 83561 82459 82316 
1673.91  82564 81993 80576 79157 77997 76593 
1697.06  74298 70404 65654 60828 54710 46003 
1720.20  37283 31655 29255 30981 37069 44488 
1743.34  51998 60195 67822 73371 77330 80306 
1766.48  82346 83898 85519 87054 88231 89117 
1789.62  89775 90240 90662 91105 91478 91752 
1812.77  91995 92263 92538 92748 92860 92979 
1835.91  93168 93329 93384 93429 93549 93683 
1859.05  93757 93760 93704 93642 93643 93696 
1882.19  93740 93745 93728 93728 93765 93821 
1905.33  93860 93887 93919 93937 93923 93903 
1928.47  93906 93903 93856 93762 93670 93626 
1951.62  93619 93621 93630 93667 93712 93728 
1974.76  93722 93731 93739 93689 93575 93482 
1997.90  93484 93543 93572 93543 93485 93430 
2021.04  93402 93419 93465 93489 93467 93424 
2044.18  93392 93377 93360 93323 93276 93249 
2067.32  93251 93255 93236 93200 93161 93125 
2090.47  93096 93079 93071 93058 93028 92979 
2113.61  92954 92929 92904 92879 92854 92830 
2136.75  92805 92780 92755 92730 92705 92680 
2159.89  92655 92631 92606 92581 92556 92531 
2183.03  92506 92481 92457 92432 92407 92382 
2206.18  92357 92332 92307 92282 92258 92233 
2229.32  92208 92183 92158 92133 92108 92083 
2252.46  92059 92034 92009 91984 91959 91934 
2275.60  91909 91884 91860 91835 91810 91785 
2298.74  91760 91735 91710 91685 91661 91636 
2321.88  91611 91586 91561 91536 91511 91486 
2345.03  91462 91437 91412 91387 91362 91337 
2368.17  91312 91287 91263 91238 91129 91061 
2391.31  91023 90985 90921 90841 90784 90767 
2414.45  90767 90764 90758 90748 90723 90682 
2437.59  90646 90625 90615 90606 90591 90554 
2460.73  90478 90364 90234 90112 90016 89949 
2483.88  89905 89870 89824 89750 89654 89565 
2507.02  89503 89458 89424 89425 89471 89523 
2530.16  89530 89484 89403 89297 89202 89187 
2553.30  89266 89348 89325 89185 89001 88841 
2576.44  88722 88624 88524 88415 88296 88148 
2599.58  87945 87703 87494 87375 87322 87247 
2622.73  87101 86925 86789 86713 86651 86526 
2645.87  86293 86012 85817 85776 85827 85855 
2669.01  85824 85804 85881 86030 86126 86088 
2692.15  85945 85744 85473 85130 84807 84642 
2715.29  84680 84811 84871 84796 84645 84520 
2738.44  84493 84543 84579 84536 84413 84181 
2761.58  83808 83365 82918 82392 81697 80850 
2784.72  79859 78685 77312 75693 73812 71838 
2807.86  69708 66752 62730 59034 57413 57653 
2831.00  58043 57876 57722 57536 56482 54718 
2854.14  53602 53861 54990 56398 57568 57355 
2877.29  55056 52142 51035 52040 53117 52661 
2900.43  50934 48997 47778 47728 48035 46896 
2923.57  43859 40919 40051 40795 41410 41306 
2946.71  41439 42883 45486 47822 48630 48330 
2969.85  48719 51078 55129 59837 64496 68780 
2992.99  72388 75141 77202 78851 80157 80965 
3016.14  81159 80952 80878 81373 82348 83352 
3039.28  84124 84746 85320 85828 86252 86616 
3062.42  86923 87159 87334 87471 87579 87649 
3085.56  87670 87654 87633 87618 87607 87614 
3108.70  87649 87677 87663 87627 87592 87548 
3131.85  87488 87429 87375 87296 87187 87095 
3154.99  87061 87063 87041 86994 86973 86979 
3178.13  86952 86871 86788 86739 86681 86569 
3201.27  86431 86322 86228 86103 85959 85849 
3224.41  85763 85633 85445 85269 85145 85020 
3247.55  84839 84626 84430 84248 84042 83815 
3270.70  83592 83366 83109 82825 82542 82264 
3293.84  81973 81664 81343 80994 80586 80111 
3316.98  79605 79086 78530 77915 77254 76563 
3340.12  75840 75095 74356 73622 72858 72031 
3363.26  71143 70219 69259 68229 67119 65960 
3386.40  64736 63381 61883 60292 58582 56644 
3409.55  54393 51772 48752 45532 42669 40803 
3432.69  40264 40927 42355 44034 45509 46550 
3455.83  47249 47895 48747 49893 51266 52761 
3478.97  54321 55934 57566 59168 60732 62274 
3502.11  63786 65262 66729 68177 69541 70805 
3525.25  72041 73315 74606 75845 76987 78040 
3548.40  79066 80082 81010 81763 82354 82904 
3571.54  83511 84116 84604 84906 85084 85301 
3594.68  85624 85960 86202 86327 86383 86463 
3617.82  86646 86881 87036 87103 87269 87566 
3640.96  87796 87770 87517 87413 87642 88022 
3664.11  88300 88233 87841 87689 87961 88195 
3687.25  88143 88034 88177 88420 88516 88461 
3710.39  88440 88542 88690 88826 88907 88848 
3733.53  88663 88548 88550 88448 88168 88016 
3756.67  88104 88192 88161 88133 88215 88298 
3779.81  88267 88207 88262 88384 88413 88288 
3802.96  88182 88274 88461 88553 88477 88436 
3826.10  88617 88833 88826 88664 88720 88929 
3849.24  88945 88721 88621 88682 88587 88304 
3872.38  88165 88231 88236 88101 88026 88086 
3895.52  88091 87925 87774 87828 87921 87864 
3918.66  87719 87668 87688 87661 87630 87691 
3941.81  87794 87849 87866 87906 87981 88074 
3964.95  88160 88212 88234 88241 88221 88160 
3988.09  88100 88092 88100 88069 
##END= 
