##TITLE= Mattson Instruments
##JCAMP_DX= 4.24
##OWNER= 
##ORIGIN= 
##DATA TYPE= INFRARED SPECTRUM
##YUNITS= % Transmittance
##XUNITS= 1/CM
##FIRSTX= 401.12365566
##FIRSTY= 37.73456954
##LASTX= 3999.66568195
##XFACTOR= 1.00000000
##YFACTOR= 0.00066031
##MINY= 11.63087749
##MAXY= 54.90427780
##DELTAX= 3.85695822
##NPOINTS= 934
##XYDATA= (X++(Y..Y))
401.12  57145 56878 56594 56292 55799 55011 
424.26  54109 53220 52350 51552 50831 50061 
447.40  49178 48233 47218 46104 44992 43970 
470.54  42990 42001 40985 39837 38450 36952 
493.69  35608 34524 33692 33183 33115 33504 
516.83  34192 34931 35634 36461 37587 38968 
539.97  40366 41504 42217 42544 42703 42920 
563.11  43282 43710 44076 44308 44444 44605 
586.25  44893 45276 45599 45706 45543 45108 
609.39  44416 43559 42708 41950 41245 40569 
632.54  40028 39810 40108 41011 42352 43672 
655.68  44472 44591 44098 43057 41794 40934 
678.82  40833 41361 42077 42579 42749 42630 
701.96  42285 41812 41324 40899 40680 40960 
725.10  41935 43365 44734 45754 46523 47229 
748.24  47923 48603 49244 49752 50039 50078 
771.39  49768 49012 48011 47188 46612 45881 
794.53  44733 43413 42257 41303 40500 40036 
817.67  40217 41154 42721 44722 46980 49318 
840.81  51546 53508 55047 55938 55981 55195 
863.95  53850 52316 50869 49626 48539 47482 
887.10  46407 45394 44564 43990 43700 43660 
910.24  43594 42923 41107 38161 34748 31708 
933.38  29568 28460 28287 28848 29893 31166 
956.52  32465 33692 34867 36103 37589 39449 
979.66  41464 42974 43350 42686 41896 41972 
1002.80  43173 44930 46351 46713 45678 43364 
1025.95  40329 37312 34814 32876 31268 29768 
1049.09  28252 26666 25006 23285 21580 20116 
1072.23  19208 19040 19584 20673 22008 23125 
1095.37  23637 23541 23161 22820 22740 23155 
1118.51  24276 26055 28167 30283 32313 34410 
1141.65  36814 39684 43002 46566 50045 53017 
1164.80  55028 55750 55140 53435 50979 48078 
1187.94  44980 41886 38910 36065 33313 30643 
1211.08  28113 25845 23957 22490 21412 20696 
1234.22  20344 20387 20895 21934 23529 25693 
1257.36  28439 31712 35336 39052 42588 45755 
1280.51  48519 50936 53054 54912 56528 57838 
1303.65  58758 59267 59348 58937 58092 57174 
1326.79  56644 56695 57164 57694 58022 58192 
1349.93  58400 58787 59424 60237 60964 61328 
1373.07  61152 60337 58983 57315 55408 53250 
1396.21  50991 48878 47071 45626 44530 43872 
1419.36  43986 45053 46828 49030 51218 52713 
1442.50  53363 53613 53792 53981 54161 54361 
1465.64  54718 55433 56549 57709 58744 59816 
1488.78  60593 60209 58724 57009 55926 56584 
1511.92  59131 62769 66983 70567 72361 73133 
1535.06  73755 73993 73246 72114 71155 70300 
1558.21  69654 69370 69072 68270 66508 63922 
1581.35  61392 59322 57469 55422 52984 50295 
1604.49  47712 45635 44286 43621 43437 43497 
1627.63  43582 43443 42935 42315 41924 41761 
1650.77  41536 40865 39884 38763 37033 34125 
1673.91  30701 27650 24738 21993 20391 20177 
1697.06  21018 22858 25414 28444 32554 38249 
1720.20  43924 48217 51998 56024 59763 62549 
1743.34  64796 66828 68521 69941 71324 72652 
1766.48  73791 74731 75484 76078 76672 77395 
1789.62  78152 78755 79190 79554 79879 80177 
1812.77  80457 80727 81042 81411 81685 81783 
1835.91  81872 82044 82170 82151 82075 82033 
1859.05  82058 82167 82251 82142 81908 81769 
1882.19  81775 81795 81716 81568 81442 81371 
1905.33  81317 81256 81211 81181 81103 80948 
1928.47  80792 80719 80741 80792 80792 80734 
1951.62  80677 80663 80680 80702 80697 80651 
1974.76  80592 80573 80611 80672 80721 80739 
1997.90  80739 80747 80785 80854 80929 80984 
2021.04  81011 81041 81101 81178 81242 81296 
2044.18  81358 81426 81492 81550 81593 81614 
2067.32  81615 81607 81601 81594 81576 81544 
2090.47  81514 81496 81481 81453 81408 81355 
2113.61  81300 81229 81132 81029 80944 80867 
2136.75  80783 80710 80665 80629 80580 80525 
2159.89  80470 80403 80319 80236 80172 80116 
2183.03  80053 79991 79953 79936 79905 79848 
2206.18  79788 79746 79707 79643 79559 79487 
2229.32  79436 79381 79304 79224 79161 79102 
2252.46  79017 78894 78745 78597 78477 78376 
2275.60  78252 78084 77900 77738 77598 77456 
2298.74  77295 77113 76905 76661 76390 76120 
2321.88  75866 75614 75358 75099 74848 74651 
2345.03  74541 74457 74307 74076 73871 73776 
2368.17  73754 73773 73836 73906 73929 73887 
2391.31  73799 73682 73547 73410 73266 73100 
2414.45  72916 72744 72588 72416 72215 72002 
2437.59  71793 71591 71395 71215 71053 70895 
2460.73  70716 70515 70315 70127 69936 69740 
2483.88  69547 69346 69124 68888 68658 68432 
2507.02  68202 67973 67750 67534 67324 67115 
2530.16  66894 66664 66443 66229 66003 65768 
2553.30  65555 65372 65197 65011 64827 64650 
2576.44  64467 64270 64074 63890 63720 63557 
2599.58  63390 63209 63015 62817 62616 62405 
2622.73  62181 61953 61735 61525 61307 61065 
2645.87  60801 60531 60261 59988 59721 59475 
2669.01  59252 59026 58770 58480 58172 57858 
2692.15  57540 57222 56918 56646 56411 56199 
2715.29  55997 55809 55625 55411 55162 54926 
2738.44  54740 54573 54387 54189 53988 53765 
2761.58  53522 53293 53077 52820 52528 52293 
2784.72  52178 52138 52077 51953 51797 51650 
2807.86  51512 51354 51151 50895 50599 50286 
2831.00  49965 49628 49270 48908 48554 48205 
2854.14  47846 47476 47091 46688 46259 45807 
2877.29  45351 44946 44647 44460 44327 44169 
2900.43  43951 43702 43444 43146 42753 42259 
2923.57  41692 41065 40385 39717 39158 38775 
2946.71  38557 38453 38423 38438 38453 38437 
2969.85  38397 38354 38283 38142 37923 37644 
2992.99  37293 36838 36287 35709 35182 34703 
3016.14  34196 33626 33061 32572 32120 31618 
3039.28  31052 30480 29931 29384 28828 28279 
3062.42  27765 27297 26862 26446 26063 25753 
3085.56  25525 25343 25162 24961 24739 24504 
3108.70  24270 24042 23809 23582 23395 23253 
3131.85  23120 22973 22830 22688 22524 22353 
3154.99  22214 22091 21927 21725 21553 21439 
3178.13  21341 21223 21105 21013 20925 20819 
3201.27  20717 20648 20586 20490 20376 20297 
3224.41  20261 20214 20116 19996 19901 19838 
3247.55  19775 19701 19644 19611 19570 19488 
3270.70  19378 19272 19182 19095 19014 18938 
3293.84  18852 18747 18641 18549 18457 18351 
3316.98  18230 18101 17980 17893 17836 17778 
3340.12  17706 17639 17614 17641 17688 17707 
3363.26  17703 17717 17735 17719 17713 17803 
3386.40  17962 18081 18135 18193 18295 18413 
3409.55  18519 18633 18781 18973 19202 19442 
3432.69  19662 19868 20105 20390 20680 20937 
3455.83  21201 21526 21904 22294 22672 23051 
3478.97  23441 23828 24198 24577 25023 25536 
3502.11  26048 26511 26964 27471 28042 28655 
3525.25  29306 29985 30658 31315 32004 32757 
3548.40  33531 34300 35113 36008 36933 37790 
3571.54  38562 39356 40274 41341 42483 43604 
3594.68  44690 45774 46890 48098 49464 50954 
3617.82  52405 53737 55092 56606 58114 59472 
3640.96  60922 62736 64681 66166 67320 68519 
3664.11  69784 71082 72388 73441 74156 74810 
3687.25  75532 76177 76639 77033 77429 77814 
3710.39  78202 78583 78878 79071 79285 79646 
3733.53  80079 80360 80497 80688 80945 81059 
3756.67  81043 81061 81123 81170 81263 81470 
3779.81  81685 81756 81754 81875 82150 82379 
3802.96  82367 82266 82330 82588 82846 82870 
3826.10  82752 82731 82879 83060 83092 83012 
3849.24  82913 82879 82975 83112 83148 83064 
3872.38  83009 83025 82954 82722 82534 82587 
3895.52  82793 82890 82699 82411 82281 82303 
3918.66  82347 82340 82308 82268 82239 82270 
3941.81  82351 82422 82471 82511 82505 82457 
3964.95  82480 82610 82702 82654 82562 82534 
3988.09  82523 82455 82381 82377 
##END= 
