##TITLE= Mattson Instruments
##JCAMP_DX= 4.24
##OWNER= 
##ORIGIN= 
##DATA TYPE= INFRARED SPECTRUM
##YUNITS= % Transmittance
##XUNITS= 1/CM
##FIRSTX= 401.12365566
##FIRSTY= 53.36656951
##LASTX= 3999.66568195
##XFACTOR= 1.00000000
##YFACTOR= 0.00052470
##MINY= 23.01508331
##MAXY= 57.40108108
##DELTAX= 3.85695822
##NPOINTS= 934
##XYDATA= (X++(Y..Y))
401.12  101707 101647 101535 98768 93700 90630 
424.26  92204 96379 99912 101600 101167 99034 
447.40  97479 98535 101315 103413 104010 103863 
470.54  103589 103462 103543 103461 102977 102404 
493.69  101889 101128 100200 99826 100400 101374 
516.83  101820 101438 100679 99864 98833 97753 
539.97  97275 97480 97710 97518 96720 95297 
563.11  94075 93799 93201 90820 88706 90292 
586.25  94777 97959 97861 95921 93872 92624 
609.39  93039 95055 97037 97656 97019 95667 
632.54  94163 93226 92939 92589 91949 91515 
655.68  91227 90450 89279 88479 88212 87966 
678.82  87473 86915 86408 85791 84973 84187 
701.96  83550 82745 81605 80242 77755 72290 
725.10  64195 57967 58547 65716 74186 79603 
748.24  81905 81775 77706 70126 65155 68905 
771.39  79276 88318 92019 93246 95325 97766 
794.53  99081 99477 99565 99208 98351 97055 
817.67  94461 89579 83456 78853 77538 79465 
840.81  84115 90318 95320 96832 95560 93418 
863.95  90793 88085 87631 90995 96112 99648 
887.10  100755 100748 100557 100094 99298 98505 
910.24  97846 97131 96540 96681 97585 98392 
933.38  98262 96901 94480 92029 91163 92223 
956.52  93670 94194 94090 93814 92948 91574 
979.66  91081 92347 94066 94062 92043 90054 
1002.80  89865 90849 91177 90297 89295 89273 
1025.95  90271 91510 92225 92453 92946 94103 
1049.09  95426 96288 96646 96724 96627 96429 
1072.23  96190 95891 95540 95144 94572 93854 
1095.37  93497 93861 94430 94407 93668 92654 
1118.51  91823 91491 91716 92076 92011 91520 
1141.65  91099 91021 91110 91165 91243 91404 
1164.80  91370 90696 89471 88507 88369 88523 
1187.94  88163 87500 87382 87957 88453 88094 
1211.08  86806 85331 84742 85376 86326 86493 
1234.22  85800 84782 83594 82106 80433 78768 
1257.36  77083 75552 75002 76314 79066 81187 
1280.51  80773 78191 75541 74183 73800 73332 
1303.65  71443 67179 62303 61623 67975 77697 
1326.79  84002 84199 80964 77697 75695 75107 
1349.93  75666 76243 75276 72080 67637 64372 
1373.07  64638 68521 73394 76210 75919 73413 
1396.21  69979 66617 64282 63497 63576 63498 
1419.36  63961 66892 72138 76725 78339 77418 
1442.50  75122 71797 68148 65469 64319 64814 
1465.64  67522 72021 75737 76300 74225 72033 
1488.78  71658 73167 75062 75650 74586 72809 
1511.92  71039 69140 66917 64573 62314 60142 
1535.06  58089 56308 54911 53844 53126 53344 
1558.21  55622 60530 67005 72831 76308 77251 
1581.35  76262 73474 68913 64004 61382 62311 
1604.49  64812 65504 63706 62751 66026 72328 
1627.63  76945 76961 73451 68783 64118 59606 
1650.77  54938 49768 45170 43862 47369 53935 
1673.91  60805 67497 75152 83707 91556 97506 
1697.06  101629 104449 106318 107486 108201 108642 
1720.20  108948 109204 109360 109341 109234 109208 
1743.34  109304 109396 109336 109071 108721 108497 
1766.48  108471 108492 108384 108093 107652 107149 
1789.62  106741 106539 106494 106470 106413 106385 
1812.77  106447 106559 106606 106533 106408 106338 
1835.91  106346 106369 106343 106258 106135 105967 
1859.05  105726 105425 105119 104844 104600 104358 
1882.19  104039 103573 103037 102662 102621 102857 
1905.33  103137 103247 103153 102992 102926 102992 
1928.47  103102 103145 103070 102915 102808 102869 
1951.62  103080 103288 103371 103342 103267 103171 
1974.76  103060 102959 102890 102850 102823 102788 
1997.90  102730 102659 102595 102534 102465 102387 
2021.04  102302 102206 102103 102003 101908 101822 
2044.18  101758 101721 101701 101682 101650 101595 
2067.32  101526 101453 101381 101305 101221 101137 
2090.47  101060 100994 100937 100879 100815 100744 
2113.61  100674 100614 100566 100519 100474 100431 
2136.75  100387 100338 100286 100231 100175 100123 
2159.89  100070 100010 99953 99909 99870 99828 
2183.03  99779 99715 99631 99532 99437 99352 
2206.18  99271 99187 99104 99031 98981 98954 
2229.32  98939 98918 98874 98797 98690 98571 
2252.46  98468 98399 98365 98349 98346 98363 
2275.60  98404 98459 98508 98539 98542 98515 
2298.74  98462 98399 98353 98339 98345 98344 
2321.88  98335 98341 98380 98428 98427 98351 
2345.03  98260 98252 98365 98519 98589 98516 
2368.17  98346 98163 98013 97898 97803 97714 
2391.31  97642 97602 97590 97586 97574 97556 
2414.45  97533 97505 97477 97441 97383 97304 
2437.59  97230 97187 97176 97184 97202 97232 
2460.73  97279 97333 97374 97390 97382 97357 
2483.88  97327 97296 97262 97224 97184 97136 
2507.02  97074 96997 96919 96857 96822 96809 
2530.16  96816 96836 96850 96838 96794 96734 
2553.30  96676 96630 96599 96581 96569 96557 
2576.44  96537 96509 96482 96464 96455 96443 
2599.58  96416 96375 96343 96333 96328 96300 
2622.73  96251 96208 96175 96124 96039 95944 
2645.87  95882 95866 95885 95911 95914 95881 
2669.01  95831 95796 95783 95782 95783 95787 
2692.15  95780 95745 95685 95612 95533 95454 
2715.29  95384 95325 95275 95236 95217 95215 
2738.44  95217 95199 95135 95025 94887 94736 
2761.58  94571 94392 94193 93954 93664 93346 
2784.72  93054 92834 92694 92598 92520 92479 
2807.86  92516 92630 92795 92977 93139 93238 
2831.00  93256 93194 93044 92812 92531 92234 
2854.14  91956 91758 91684 91716 91775 91734 
2877.29  91453 90963 90556 90499 90708 90867 
2900.43  90816 90628 90419 90215 89967 89616 
2923.57  89228 89026 89181 89608 90076 90429 
2946.71  90643 90723 90680 90545 90355 90140 
2969.85  89935 89768 89621 89434 89159 88794 
2992.99  88377 87941 87483 86972 86410 85891 
3016.14  85572 85536 85655 85648 85324 84749 
3039.28  84147 83671 83338 83111 82930 82730 
3062.42  82516 82387 82401 82512 82701 83031 
3085.56  83509 83985 84300 84470 84661 84991 
3108.70  85385 85620 85508 85028 84337 83675 
3131.85  83298 83387 83942 84742 85464 85878 
3154.99  85942 85749 85431 85082 84713 84242 
3178.13  83597 82830 82126 81687 81595 81763 
3201.27  82023 82278 82514 82691 82702 82461 
3224.41  81970 81275 80403 79353 78133 76803 
3247.55  75524 74512 73908 73662 73576 73453 
3270.70  73211 72861 72409 71829 71155 70535 
3293.84  70155 70135 70502 71225 72258 73568 
3316.98  75156 77051 79290 81872 84721 87657 
3340.12  90452 92910 94941 96550 97791 98734 
3363.26  99453 100004 100416 100695 100869 100990 
3386.40  101097 101194 101268 101307 101311 101295 
3409.55  101288 101313 101362 101407 101429 101426 
3432.69  101418 101425 101440 101440 101421 101405 
3455.83  101397 101380 101347 101314 101297 101294 
3478.97  101290 101280 101281 101308 101347 101370 
3502.11  101372 101367 101364 101369 101389 101417 
3525.25  101433 101446 101476 101519 101544 101550 
3548.40  101570 101601 101613 101599 101606 101665 
3571.54  101754 101834 101905 101971 102019 102045 
3594.68  102073 102125 102199 102289 102383 102452 
3617.82  102486 102519 102580 102644 102666 102650 
3640.96  102640 102661 102696 102722 102744 102785 
3664.11  102839 102870 102858 102828 102831 102885 
3687.25  102951 102977 102959 102940 102957 103005 
3710.39  103053 103081 103101 103133 103167 103173 
3733.53  103161 103164 103185 103200 103198 103190 
3756.67  103183 103203 103271 103349 103383 103385 
3779.81  103406 103439 103448 103451 103493 103551 
3802.96  103577 103578 103595 103637 103673 103666 
3826.10  103626 103611 103670 103764 103821 103836 
3849.24  103866 103921 103962 103971 103975 103979 
3872.38  103963 103941 103954 104015 104083 104129 
3895.52  104168 104213 104241 104236 104233 104270 
3918.66  104325 104340 104306 104268 104265 104293 
3941.81  104330 104371 104431 104518 104609 104664 
3964.95  104680 104693 104727 104760 104772 104774 
3988.09  104780 104790 104808 104853 
##END= 
