##TITLE= Mattson Instruments
##JCAMP_DX= 4.24
##OWNER= 
##ORIGIN= 
##DATA TYPE= INFRARED SPECTRUM
##YUNITS= % Transmittance
##XUNITS= 1/CM
##FIRSTX= 401.12781972
##FIRSTY= 39.65227508
##LASTX= 3999.70720246
##XFACTOR= 1.00000000
##YFACTOR= 0.00099782
##MINY= 0.00000102
##MAXY= 65.39138793
##DELTAX= 3.85699826
##NPOINTS= 934
##XYDATA= (X++(Y..Y))
401.12  39738 41248 42026 41903 38966 33029 
424.26  29735 32992 39738 43336 43172 41379 
447.41  39738 39061 37720 36380 35732 35575 
470.55  35301 34510 33208 31432 28888 25227 
493.69  20544 15713 12463 12260 14450 16633 
516.83  16695 14135 10761 10265 15220 23414 
539.97  29027 29200 27697 29764 35172 39738 
563.12  41732 43041 43269 39738 33980 31777 
586.26  35291 39738 41097 41321 43396 46267 
609.40  47635 47262 45753 43667 42586 43916 
632.54  46605 48415 48776 48504 47781 46264 
655.68  44494 43596 44138 45861 47752 48891 
678.83  49278 49334 49303 49234 49138 48937 
701.97  48523 47950 47270 46240 44701 42773 
725.11  39738 33565 24050 14542 9883 12265 
748.25  20341 30802 39738 44690 46237 47013 
771.39  48241 49332 50115 51140 52257 52811 
794.54  52822 52719 52600 52389 52090 51702 
817.68  51248 50646 49613 48254 47204 46450 
840.82  45264 44022 43998 44467 42985 39738 
863.96  37976 39738 43166 45745 47862 50171 
887.10  51800 52086 51742 51531 51433 51355 
910.25  51398 51375 50969 50328 49990 50245 
933.39  50811 51152 51032 50597 49939 48950 
956.53  47805 47104 47168 47557 47556 46754 
979.67  45087 43008 41641 41751 42386 41753 
1002.81  39738 38024 38267 39738 41240 42401 
1025.96  43718 45055 45896 46236 46165 45279 
1049.10  43629 42390 42241 42279 42013 42724 
1072.24  45060 47239 47424 45854 43451 40871 
1095.38  39738 41864 46429 50402 51958 51699 
1118.52  50935 50346 50004 49779 49705 49827 
1141.67  49645 48554 46902 45543 44604 44003 
1164.81  44563 46981 50226 52479 53190 53093 
1187.95  52816 52446 51954 51336 50581 49836 
1211.09  49355 49073 48368 46651 44497 43703 
1234.23  45290 47729 48487 47325 46474 47415 
1257.38  49169 50120 49983 49427 48879 48275 
1280.52  47437 46272 44773 43071 41446 39738 
1303.66  36900 31746 26215 24511 28253 33990 
1326.80  37099 35955 31826 27937 27882 31449 
1349.94  34319 34331 34920 39738 45672 48606 
1373.09  47927 46063 44247 42194 39738 37402 
1396.23  34531 31001 26872 22805 20442 21816 
1419.37  27311 34169 39738 44233 46696 46720 
1442.51  44372 39738 34703 33115 39738 48351 
1465.65  53391 53953 52633 50898 48624 46282 
1488.80  45107 45300 45379 44484 43053 41802 
1511.94  40839 39738 38840 37828 36942 35976 
1535.08  34604 32588 30064 27618 25544 23959 
1558.22  22853 21528 19374 16376 12886 9993 
1581.36  8671 9000 10639 12762 14274 14682 
1604.51  14308 13879 14141 15773 18997 22968 
1627.65  26634 29712 32092 33391 33446 32148 
1650.79  29259 25715 22989 21371 21578 24761 
1673.93  29879 34937 39738 44353 47959 50291 
1697.07  52068 54038 55986 57341 58132 58842 
1720.22  59870 60860 61416 61690 62146 62786 
1743.36  63239 63469 63676 63908 64076 64160 
1766.50  64211 64346 64701 65193 65533 65534 
1789.64  65227 64831 64579 64538 64618 64715 
1812.78  64787 64783 64610 64279 64008 63922 
1835.93  63800 63441 63042 62996 63278 63515 
1859.07  63486 63247 62924 62582 62282 62110 
1882.21  62119 62266 62410 62436 62352 62155 
1905.35  61723 61022 60338 60084 60327 60717 
1928.49  60918 60898 60761 60586 60426 60313 
1951.64  60204 60022 59750 59453 59209 59056 
1974.78  58975 58917 58831 58696 58530 58366 
1997.92  58218 58062 57871 57647 57416 57196 
2021.06  56983 56755 56478 56135 55738 55314 
2044.20  54880 54442 53988 53494 52947 52360 
2067.35  51754 51131 50487 49821 49152 48529 
2090.49  48019 47667 47475 47432 47523 47711 
2113.63  47943 48183 48426 48679 48944 49240 
2136.77  49604 50064 50600 51159 51692 52177 
2159.91  52602 52966 53268 53498 53632 53668 
2183.06  53645 53630 53660 53711 53735 53714 
2206.20  53656 53571 53447 53274 53049 52774 
2229.34  52470 52176 51904 51631 51331 51011 
2252.48  50677 50326 49959 49599 49263 48949 
2275.62  48656 48368 48038 47631 47186 46762 
2298.77  46357 46067 45777 45487 45197 44907 
2321.91  44617 44327 44037 43747 43457 43167 
2345.05  42877 42587 42297 42007 41717 41427 
2368.19  41137 40847 40557 40267 40501 40409 
2391.33  40102 39738 39507 39332 39182 39031 
2414.48  38854 38625 38341 38029 37710 37392 
2437.62  37068 36737 36404 36095 35837 35640 
2460.76  35497 35406 35369 35382 35424 35456 
2483.90  35442 35379 35304 35257 35254 35280 
2507.04  35305 35292 35221 35113 35013 34947 
2530.19  34893 34827 34750 34699 34706 34783 
2553.33  34925 35119 35345 35584 35826 36053 
2576.47  36231 36339 36408 36510 36680 36887 
2599.61  37075 37226 37353 37466 37568 37675 
2622.75  37805 37966 38147 38331 38502 38631 
2645.90  38674 38602 38436 38242 38063 37879 
2669.04  37648 37372 37089 36832 36601 36384 
2692.18  36166 35932 35675 35390 35060 34697 
2715.32  34363 34138 34036 33998 33958 33895 
2738.46  33832 33806 33849 33980 34191 34444 
2761.61  34693 34905 35062 35171 35250 35315 
2784.75  35348 35312 35186 34986 34756 34535 
2807.89  34345 34186 34032 33848 33604 33301 
2831.03  32928 32406 31683 30903 30368 30268 
2854.17  30517 30911 31342 31768 32122 32341 
2877.32  32416 32355 32155 31811 31305 30617 
2900.46  29858 29302 29137 29222 29237 29014 
2923.60  28614 28131 27606 27076 26567 26049 
2946.74  25484 24859 24195 23620 23414 23773 
2969.88  24516 25194 25495 25434 25170 24805 
2993.03  24364 23861 23309 22754 22285 21968 
3016.17  21763 21563 21288 20903 20398 19841 
3039.31  19368 19051 18859 18793 18946 19375 
3062.45  19992 20643 21235 21775 22323 22954 
3085.59  23747 24774 26049 27468 28856 30064 
3108.74  31008 31718 32383 33261 34443 35815 
3131.88  37225 38566 39738 40670 41432 42093 
3155.02  42658 43132 43568 44020 44497 44980 
3178.16  45434 45835 46209 46609 47044 47466 
3201.30  47830 48139 48409 48638 48823 48992 
3224.45  49183 49371 49487 49523 49550 49601 
3247.59  49631 49617 49602 49625 49675 49706 
3270.73  49688 49617 49519 49425 49336 49225 
3293.87  49073 48889 48694 48471 48193 47883 
3317.01  47593 47316 46990 46576 46075 45463 
3340.16  44717 43865 42954 41987 40935 39738 
3363.30  38265 36487 34366 31816 28622 24496 
3386.44  19299 13281 7226 2335 0 1365 
3409.58  6584 14348 22486 29246 34093 37415 
3432.72  39738 41417 42667 43689 44615 45484 
3455.87  46265 46914 47435 47872 48243 48530 
3479.01  48720 48835 48904 48942 48935 48870 
3502.15  48780 48745 48801 48877 48862 48745 
3525.29  48631 48606 48622 48565 48397 48196 
3548.43  48091 48106 48090 47882 47552 47410 
3571.58  47564 47725 47636 47338 47063 46950 
3594.72  46930 46908 46842 46690 46438 46228 
3617.86  46215 46280 46196 46050 46153 46394 
3641.00  46358 45911 45470 45558 45988 46295 
3664.14  46226 45721 45075 44920 45215 45353 
3687.29  45132 44924 45030 45157 44991 44628 
3710.43  44384 44335 44293 44150 43882 43495 
3733.57  43131 42988 42980 42861 42697 42799 
3756.71  43097 43282 43282 43250 43258 43212 
3779.85  43095 43030 43037 42936 42578 42098 
3803.00  41881 42006 42081 41805 41336 41167 
3826.14  41316 41300 40897 40518 40578 40710 
3849.28  40487 40086 40004 40104 39994 39738 
3872.42  39724 39844 39821 39635 39472 39354 
3895.56  39161 38990 39142 39557 39817 39744 
3918.71  39549 39522 39635 39730 39781 39813 
3941.85  39785 39713 39701 39768 39830 39846 
3964.99  39849 39863 39879 39881 39858 39816 
3988.13  39774 39745 39734 39738 
##END= 
