##TITLE= Mattson Instruments
##JCAMP_DX= 4.24
##OWNER= 
##ORIGIN= 
##DATA TYPE= INFRARED SPECTRUM
##YUNITS= % Transmittance
##XUNITS= 1/CM
##FIRSTX= 401.12365566
##FIRSTY= 23.66011428
##LASTX= 3999.66568195
##XFACTOR= 1.00000000
##YFACTOR= 0.00041478
##MINY= 2.62921953
##MAXY= 29.81167602
##DELTAX= 3.85695822
##NPOINTS= 934
##XYDATA= (X++(Y..Y))
401.12  57042 56254 55690 55753 56773 58040 
424.26  58653 58564 57954 57137 56397 54952 
447.40  51502 47053 45218 47957 52546 55652 
470.54  57137 58099 58489 58051 57246 56350 
493.69  55154 53663 51849 49255 45528 40569 
516.83  34275 27969 25696 31105 42619 54146 
539.97  61053 63552 64140 64191 63879 63401 
563.11  62940 62419 61799 61219 60739 60311 
586.25  59914 59500 58975 58380 57781 57013 
609.39  55863 54553 53697 53562 53598 53085 
632.54  52083 51038 49435 46190 42088 40130 
655.68  41810 44609 45326 43492 40639 37650 
678.82  34556 31306 27035 21135 16519 18485 
701.96  28458 41134 49368 50273 46557 42915 
725.10  41641 41244 38929 33978 28572 25478 
748.24  25051 24839 22419 17803 12767 9699 
771.39  11882 21918 37728 52678 61681 65040 
794.53  65562 64850 63420 61824 60366 58978 
817.67  57428 54956 50880 46551 44959 47115 
840.81  50518 52319 52164 51127 49801 48300 
863.95  46678 44827 42728 40580 38265 35380 
887.10  31890 28170 24904 23208 23461 23790 
910.24  21767 17859 14776 13244 11545 10244 
933.38  13932 25451 40525 51307 53657 48124 
956.52  37185 26455 24746 35873 52486 63258 
979.66  63687 56810 48374 44248 46870 51934 
1002.80  53294 50377 45873 39660 31198 24107 
1025.95  22547 26189 32345 39431 45881 49137 
1049.09  47670 42541 37047 35183 38541 44385 
1072.23  48392 48474 45086 40456 38389 41242 
1095.37  46405 49231 48710 46725 43957 40526 
1118.51  38184 38192 39085 38875 37444 35536 
1141.65  33313 30410 26358 21430 17217 14951 
1164.80  13840 13147 14735 20678 29268 36150 
1187.94  38917 38605 37313 36024 34488 32196 
1211.08  29365 26965 25561 24526 22835 20196 
1234.22  16992 13622 10406 7788 6338 6779 
1257.36  10036 16859 26982 38443 47980 52951 
1280.51  53340 51407 49097 46272 41804 35655 
1303.65  28899 22360 17112 15959 21115 29540 
1326.79  34799 34963 34417 36990 41115 43875 
1349.93  45345 46331 46253 44852 42750 39628 
1373.07  35222 31892 32098 33562 31515 26025 
1396.21  23051 25869 30225 31568 31268 32315 
1419.36  33716 32628 29851 27603 25786 23183 
1442.50  20008 17219 15152 13784 12699 11216 
1465.64  9721 9689 12050 15336 17409 17763 
1488.78  16401 14163 13722 17736 26594 35681 
1511.92  39498 39903 42386 49219 56581 60819 
1535.06  61987 60975 59037 57436 55898 53498 
1558.21  50060 46715 43246 37847 30297 24011 
1581.35  21754 21510 19915 16863 16988 25001 
1604.49  39578 54036 63504 68330 70816 71872 
1627.63  71515 70117 68187 66170 64414 62907 
1650.77  61224 59123 57037 55345 54456 54966 
1673.91  56564 58135 59057 59346 59303 59002 
1697.06  58161 56728 55395 54550 54156 54376 
1720.20  55034 55376 54999 54077 53340 53272 
1743.34  53496 53536 53205 52496 51563 50739 
1766.48  50291 50075 49744 49363 49374 50069 
1789.62  51356 52784 53833 54242 54095 53767 
1812.77  53691 53984 54410 54754 54993 55161 
1835.91  55189 54823 53670 51776 50056 49514 
1859.05  50329 51779 52905 53197 52754 52104 
1882.19  51856 52236 52872 53306 53491 53529 
1905.33  53432 53259 53114 53027 53034 53144 
1928.47  53157 52837 52083 50677 48487 46358 
1951.62  45819 47306 49506 50850 50871 49898 
1974.76  48494 47545 47825 49089 50310 50927 
1997.90  51243 51634 52075 52375 52440 52310 
2021.04  52160 52165 52307 52426 52414 52274 
2044.18  52043 51739 51381 51027 50763 50620 
2067.32  50539 50460 50383 50299 50195 50149 
2090.47  50262 50492 50679 50749 50740 50653 
2113.61  50446 50184 50014 49971 49938 49845 
2136.75  49733 49625 49497 49388 49381 49462 
2159.89  49515 49471 49332 49107 48814 48520 
2183.03  48301 48171 48119 48151 48244 48293 
2206.18  48196 47984 47791 47686 47625 47545 
2229.32  47426 47275 47139 47040 46941 46843 
2252.46  46744 46645 46546 46448 46349 46250 
2275.60  46151 46053 45954 45855 45756 45658 
2298.74  45559 45460 45361 45263 45164 45065 
2321.88  44966 44868 44769 44670 44571 44473 
2345.03  44374 44275 44176 44078 43979 43880 
2368.17  43781 43683 43584 43485 43386 43288 
2391.31  43189 42877 42605 42525 42552 42453 
2414.45  42182 41947 41935 42104 42269 42296 
2437.59  42207 42127 42126 42119 41946 41499 
2460.73  40798 40004 39363 38979 38683 38257 
2483.88  37728 37246 36794 36301 35936 35921 
2507.02  36132 36229 36153 36173 36475 36951 
2530.16  37433 37874 38240 38406 38304 38057 
2553.30  37829 37644 37497 37514 37790 38142 
2576.44  38296 38248 38206 38244 38277 38292 
2599.58  38368 38504 38645 38791 38911 38865 
2622.73  38611 38355 38296 38327 38170 37750 
2645.87  37273 36982 36934 37027 37143 37233 
2669.01  37254 37124 36763 36161 35420 34746 
2692.15  34293 33987 33601 33085 32690 32658 
2715.29  32899 33089 33059 32944 32866 32650 
2738.44  32026 31085 30308 30088 30311 30472 
2761.58  30219 29679 29090 28327 27245 26264 
2784.72  25892 25797 25190 24091 23303 23102 
2807.86  22891 22252 21506 20992 20388 19078 
2831.00  16976 14784 13406 13135 13513 14001 
2854.14  14548 15445 16887 18822 20991 22966 
2877.29  24347 24987 24981 24509 23808 23142 
2900.43  22685 22444 22363 22423 22617 22880 
2923.57  23067 23069 22948 22861 22858 22847 
2946.71  22800 22843 23083 23398 23458 23056 
2969.85  22430 22117 22392 22865 22671 21053 
2992.99  17931 14284 12037 13017 17363 22944 
3016.14  27003 28670 29162 29556 29642 29168 
3039.28  28758 28885 29225 29612 30501 31958 
3062.42  33276 33954 34244 34485 34601 34437 
3085.56  34120 33955 34139 34592 35060 35433 
3108.70  35840 36393 37006 37528 37925 38248 
3131.85  38519 38691 38718 38622 38487 38377 
3154.99  38329 38356 38427 38474 38458 38390 
3178.13  38295 38199 38133 38106 38102 38117 
3201.27  38182 38306 38432 38481 38424 38303 
3224.41  38176 38097 38115 38237 38399 38523 
3247.55  38583 38592 38555 38467 38320 38120 
3270.70  37916 37778 37717 37675 37607 37532 
3293.84  37490 37481 37447 37328 37148 37008 
3316.98  36976 37018 37055 37055 37033 36997 
3340.12  36940 36868 36822 36838 36897 36931 
3363.26  36903 36829 36734 36608 36458 36333 
3386.40  36263 36220 36171 36116 36038 35884 
3409.55  35657 35474 35441 35514 35563 35562 
3432.69  35582 35638 35650 35580 35479 35380 
3455.83  35244 35061 34933 34986 35211 35457 
3478.97  35587 35590 35547 35522 35519 35509 
3502.11  35474 35451 35499 35594 35643 35636 
3525.25  35683 35846 36034 36150 36210 36237 
3548.40  36172 35994 35822 35777 35841 35912 
3571.54  35957 36018 36100 36161 36185 36162 
3594.68  36075 35939 35808 35685 35527 35387 
3617.82  35382 35470 35494 35429 35424 35514 
3640.96  35563 35468 35301 35275 35480 35806 
3664.11  36056 36034 35736 35509 35557 35651 
3687.25  35560 35347 35247 35288 35336 35305 
3710.39  35218 35143 35121 35153 35197 35188 
3733.53  35115 35059 35044 34968 34776 34620 
3756.67  34608 34645 34641 34645 34710 34777 
3779.81  34793 34803 34834 34821 34692 34478 
3802.96  34325 34341 34468 34562 34520 34406 
3826.10  34353 34335 34251 34129 34103 34147 
3849.24  34124 33999 33917 33946 33979 33901 
3872.38  33714 33498 33297 33131 33018 32931 
3895.52  32827 32725 32710 32799 32909 32976 
3918.66  33002 33017 33014 32981 32949 32939 
3941.81  32910 32849 32815 32818 32758 32567 
3964.95  32327 32182 32169 32181 32092 31918 
3988.09  31800 31774 31679 31393 
##END= 
