##TITLE= Mattson Instruments
##JCAMP_DX= 4.24
##OWNER= 
##ORIGIN= 
##DATA TYPE= INFRARED SPECTRUM
##YUNITS= % Transmittance
##XUNITS= 1/CM
##FIRSTX= 401.12365566
##FIRSTY= 29.94979667
##LASTX= 3999.66568195
##XFACTOR= 1.00000000
##YFACTOR= 0.00102914
##MINY= 1.40020453
##MAXY= 68.84392547
##DELTAX= 3.85695822
##NPOINTS= 934
##XYDATA= (X++(Y..Y))
401.12  29101 28034 31602 38703 46417 50830 
424.26  50936 49543 49338 51238 54214 56098 
447.40  55533 52790 49058 45952 44698 45042 
470.54  45118 42859 39218 38380 43060 50701 
493.69  56241 57972 57564 56583 55343 53920 
516.83  52423 50625 48253 45276 41326 35548 
539.97  28202 22331 22171 28664 37850 44936 
563.11  48300 49029 48476 47254 45536 43330 
586.25  40593 37080 32251 26077 19930 15917 
609.39  15593 19162 24538 27848 27250 25610 
632.54  27017 31692 36760 40784 44443 47611 
655.68  49188 49326 49089 48679 47717 46479 
678.82  45346 44145 42750 41378 39956 38227 
701.96  36843 37069 38779 39944 39027 36748 
725.10  34691 33300 32040 30448 28467 26567 
748.24  25680 26281 27757 29220 30437 31581 
771.39  32656 33568 34317 34903 35278 35436 
794.53  35382 35047 34329 33184 31488 28852 
817.67  24825 19673 15047 13491 16455 22537 
840.81  28415 32153 34754 37836 41038 42903 
863.95  43149 42683 42119 41464 40691 39859 
887.10  38953 37966 36967 36019 35121 34265 
910.24  33459 32730 32021 31167 30148 29195 
933.38  28428 27638 26549 25139 23612 22199 
956.52  20963 19726 18170 16080 13583 11468 
979.66  10963 12517 14906 16263 15890 14499 
1002.80  12920 11385 9909 8580 7400 6271 
1025.95  5170 4168 3309 2595 2040 1659 
1049.09  1443 1360 1370 1440 1547 1657 
1072.23  1740 1788 1816 1853 1956 2160 
1095.37  2427 2706 3014 3392 3846 4397 
1118.51  5107 5920 6594 6880 6828 6822 
1141.65  7195 7880 8677 9681 10944 11879 
1164.80  11921 11796 13095 16354 20416 23822 
1187.94  26026 27193 27538 27108 25892 24018 
1211.08  21817 19608 17504 15619 14261 13671 
1234.22  13748 14373 15735 17841 19953 21417 
1257.36  22957 25733 28720 28838 24934 20216 
1280.51  19216 23370 30600 38033 43999 48109 
1303.65  50705 52357 53355 53599 52942 51470 
1326.79  49409 46908 44023 41025 38485 36690 
1349.93  35267 33686 31883 30325 29491 29502 
1373.07  30253 31431 32427 32694 32172 31363 
1396.21  31080 31791 33159 34425 35100 35005 
1419.36  34321 33716 33413 32801 31577 30630 
1442.50  30662 30768 29490 26002 21202 17295 
1465.64  14750 12798 11528 11691 13214 15879 
1488.78  19730 23714 26390 27545 26637 23016 
1511.92  18281 14035 10971 11352 16051 22337 
1535.06  28485 34467 39560 42915 45348 47780 
1558.21  50313 52222 53445 54360 54974 55104 
1581.35  54619 53467 51573 48311 42634 35209 
1604.49  29482 28208 29849 30496 28117 24171 
1627.63  20933 19912 22196 26653 30899 34874 
1650.77  39824 44865 48417 51187 53900 56245 
1673.91  57865 59110 60260 61235 62032 62825 
1697.06  63705 64441 64804 65105 65561 65911 
1720.20  65887 65862 66091 66326 66232 65981 
1743.34  65826 65690 65490 65301 65209 65284 
1766.48  65558 65917 66147 66229 66331 66538 
1789.62  66771 66894 66869 66779 66702 66627 
1812.77  66499 66337 66220 66117 65872 65489 
1835.91  65168 64961 64727 64365 63907 63393 
1859.05  62867 62331 61522 60151 58542 57407 
1882.19  57088 57471 58276 59281 60286 61057 
1905.33  61465 61586 61624 61723 61892 62057 
1928.47  62171 62228 62209 62075 61834 61571 
1951.62  61385 61303 61268 61200 61049 60800 
1974.76  60456 60032 59553 59038 58487 57877 
1997.90  57194 56429 55565 54598 53591 52688 
2021.04  52054 51765 51749 51846 51956 52111 
2044.18  52370 52686 52941 53065 53072 52997 
2067.32  52845 52592 52224 51788 51381 51072 
2090.47  50829 50536 50121 49660 49334 49276 
2113.61  49465 49774 50081 50349 50624 50929 
2136.75  51198 51328 51280 51106 50884 50653 
2159.89  50403 50108 49766 49403 49030 48628 
2183.03  48182 47717 47271 46846 46413 45967 
2206.18  45527 45086 44614 44107 43584 43047 
2229.32  42491 41915 41320 40717 40128 39561 
2252.46  39009 38472 37970 37498 37038 36598 
2275.60  36190 35783 35340 34889 34484 34116 
2298.74  33719 33275 32828 32404 32000 31628 
2321.88  31288 30926 30525 30150 29762 29210 
2345.03  28564 28084 27854 27664 27203 26436 
2368.17  25542 24604 23682 22863 22193 21660 
2391.31  21213 20795 20371 19937 19505 19079 
2414.45  18652 18222 17791 17357 16917 16476 
2437.59  16043 15617 15179 14710 14220 13730 
2460.73  13250 12775 12311 11870 11453 11062 
2483.88  10719 10455 10285 10214 10256 10425 
2507.02  10725 11149 11681 12298 12964 13639 
2530.16  14294 14916 15484 15942 16244 16419 
2553.30  16537 16631 16679 16652 16549 16382 
2576.44  16158 15887 15578 15224 14823 14402 
2599.58  14016 13706 13466 13252 13029 12797 
2622.73  12575 12368 12169 11981 11808 11636 
2645.87  11438 11202 10922 10596 10242 9895 
2669.01  9567 9253 8954 8682 8439 8228 
2692.15  8060 7935 7833 7740 7660 7600 
2715.29  7569 7589 7666 7776 7893 8025 
2738.44  8195 8407 8650 8920 9232 9606 
2761.58  10054 10561 11090 11586 11993 12257 
2784.72  12360 12339 12258 12171 12102 12053 
2807.86  12015 11988 11979 12001 12060 12152 
2831.00  12268 12394 12519 12647 12803 13018 
2854.14  13284 13551 13759 13870 13863 13738 
2877.29  13526 13288 13079 12907 12740 12550 
2900.43  12355 12184 12023 11834 11624 11454 
2923.57  11366 11328 11284 11217 11145 11066 
2946.71  10941 10731 10445 10118 9775 9445 
2969.85  9183 9040 9013 9061 9158 9297 
2992.99  9459 9613 9747 9866 9970 10036 
3016.14  10033 9982 9969 10052 10201 10361 
3039.28  10509 10608 10588 10455 10329 10293 
3062.42  10304 10299 10308 10377 10470 10523 
3085.56  10548 10589 10647 10678 10673 10663 
3108.70  10661 10644 10594 10533 10496 10487 
3131.85  10479 10476 10510 10590 10687 10782 
3154.99  10887 11006 11130 11270 11440 11624 
3178.13  11779 11902 12055 12287 12566 12825 
3201.27  13051 13307 13635 14020 14442 14905 
3224.41  15388 15830 16209 16587 17021 17497 
3247.55  17968 18439 18947 19499 20065 20632 
3270.70  21216 21831 22480 23154 23826 24450 
3293.84  25009 25548 26125 26732 27315 27862 
3316.98  28407 28974 29541 30090 30640 31213 
3340.12  31793 32361 32931 33522 34104 34643 
3363.26  35159 35696 36250 36800 37370 37986 
3386.40  38611 39182 39703 40231 40777 41297 
3409.55  41783 42287 42831 43356 43811 44229 
3432.69  44662 45111 45553 45997 46451 46895 
3455.83  47324 47773 48255 48732 49166 49563 
3478.97  49941 50287 50602 50914 51243 51572 
3502.11  51883 52182 52482 52790 53120 53469 
3525.25  53790 54036 54251 54538 54931 55325 
3548.40  55590 55765 56029 56450 56871 57075 
3571.54  57131 57298 57657 58082 58412 58622 
3594.68  58791 58963 59173 59466 59803 60040 
3617.82  60165 60363 60668 60799 60622 60505 
3640.96  60729 61153 61314 61012 60660 60564 
3664.11  60743 61061 61190 60942 60705 60757 
3687.25  60949 61007 60948 60981 61119 61243 
3710.39  61298 61323 61324 61328 61450 61722 
3733.53  61926 61854 61680 61635 61601 61357 
3756.67  61033 60822 60715 60627 60560 60540 
3779.81  60506 60402 60323 60405 60622 60760 
3802.96  60638 60439 60440 60659 60849 60765 
3826.10  60598 60638 60837 60868 60653 60494 
3849.24  60491 60489 60392 60301 60230 60094 
3872.38  59939 59877 59855 59739 59552 59474 
3895.52  59544 59578 59407 59201 59176 59266 
3918.66  59294 59221 59137 59059 58967 58901 
3941.81  58885 58870 58833 58799 58749 58652 
3964.95  58549 58508 58509 58486 58426 58363 
3988.09  58318 58295 58289 58264 
##END= 
