##TITLE= Mattson Instruments
##JCAMP_DX= 4.24
##OWNER= 
##ORIGIN= 
##DATA TYPE= INFRARED SPECTRUM
##YUNITS= % Transmittance
##XUNITS= 1/CM
##FIRSTX= 401.12781972
##FIRSTY= 30.63443946
##LASTX= 3999.70720246
##XFACTOR= 1.00000000
##YFACTOR= 0.00054961
##MINY= 0.00000102
##MAXY= 36.01849746
##DELTAX= 3.85699826
##NPOINTS= 934
##XYDATA= (X++(Y..Y))
401.12  55737 56854 57450 57075 56159 55737 
424.26  55933 56034 55737 55737 56493 57880 
447.41  58953 59177 58889 58738 58865 58955 
470.55  58904 58821 58479 57575 56423 55737 
493.69  55553 55655 55737 55971 56271 56669 
516.83  56997 57031 56731 56255 55737 55532 
539.97  55737 56257 56967 57528 57868 58069 
563.12  58208 58306 58236 57866 57399 57296 
586.26  57689 58212 58511 58550 58459 58346 
609.40  58276 58255 58254 58302 58446 58690 
632.54  59046 59545 60139 60707 61151 61338 
655.68  61174 60834 60651 60852 61392 61893 
678.83  61847 61072 60293 60510 61411 61777 
701.97  61441 61525 62460 63292 63391 63411 
725.11  64012 64850 65358 65515 65534 65480 
748.25  65308 64948 64435 64078 64139 64394 
771.39  64485 64488 64666 64903 64895 64635 
794.54  64425 64513 64772 64725 64118 63359 
817.68  62981 62828 62421 61969 62222 63124 
840.82  63411 62152 60254 59579 60695 62345 
863.96  63025 62320 60905 59765 58733 55737 
887.10  49248 42587 41311 46274 51750 52654 
910.25  50506 49912 52045 54433 55245 55178 
933.39  55737 57342 58492 57781 55737 54679 
956.53  55737 57954 59594 59709 58208 55737 
979.67  53601 53029 54023 55737 57255 58308 
1002.81  58799 58813 58437 57762 56921 55737 
1025.96  53702 50705 48004 46924 46896 45800 
1049.10  42840 40085 39883 41517 42389 42234 
1072.24  43530 47292 51012 51976 50678 49688 
1095.38  50425 52304 54253 55733 56386 55993 
1118.52  54977 53827 52095 49372 47069 47339 
1141.67  50225 53586 55737 56496 56535 56183 
1164.81  55737 55591 55737 56153 56518 56453 
1187.95  56066 55909 56146 56333 56200 55959 
1211.09  55737 55357 54826 54480 54421 54249 
1234.23  53526 52299 51040 50296 50356 50913 
1257.38  51053 50044 48319 47078 46824 47041 
1280.52  47348 47927 48561 48492 47775 47692 
1303.66  49216 51776 54019 55244 55737 56127 
1326.80  56365 56194 55737 55458 55509 55329 
1349.94  54728 54188 54005 53860 53402 52706 
1373.09  52077 51862 52072 51977 50784 48879 
1396.23  47657 47753 48389 48647 48440 48403 
1419.37  49311 50742 51161 49994 48478 48226 
1442.51  48729 48401 47209 46875 48848 51725 
1465.65  53527 54441 55737 57645 59058 59341 
1488.80  58997 58980 59236 58927 57985 57408 
1511.94  57558 57568 57204 57330 58159 58586 
1535.08  57910 56788 56946 58004 58296 57466 
1558.22  56647 57056 57674 57504 56796 56239 
1581.36  55737 54807 53219 50570 46216 41120 
1604.51  37957 37096 34827 28856 23922 25958 
1627.65  33031 39994 44243 45676 44876 41295 
1650.79  32907 20197 7955 0 1125 14266 
1673.93  31050 42044 47175 49651 50781 49909 
1697.07  45748 39281 35419 35628 38926 44860 
1720.22  50675 53830 55072 55737 56513 57225 
1743.36  57524 57630 58081 58897 59555 59756 
1766.50  59606 59440 59634 60193 60681 60773 
1789.64  60581 60509 60779 61216 61541 61707 
1812.78  61884 62070 61978 61578 61399 61753 
1835.93  62131 62103 61942 62138 62612 62934 
1859.07  62876 62521 62225 62347 62786 63101 
1882.21  63068 62846 62729 62818 62967 63013 
1905.35  62952 62877 62811 62725 62700 62857 
1928.49  63111 63220 63092 62896 62850 62976 
1951.64  63123 63156 63073 62972 62946 63003 
1974.78  63086 63123 63067 62947 62865 62899 
1997.92  63005 63085 63093 63046 62979 62944 
2021.06  62981 63058 63098 63075 63027 62994 
2044.20  62990 63005 63015 62990 62926 62867 
2067.35  62848 62865 62883 62879 62859 62846 
2090.49  62853 62860 62843 62806 62777 62773 
2113.63  62788 62808 62828 62847 62857 62849 
2136.77  62826 62813 62832 62881 62925 62949 
2159.91  62957 62964 62971 62970 62951 62917 
2183.06  62892 62899 62932 62968 62987 62993 
2206.20  62991 62985 62977 62969 62969 62972 
2229.34  62970 62953 62929 62915 62905 62883 
2252.48  62842 62792 62737 62678 62629 62608 
2275.62  62623 62658 62664 62670 62676 62682 
2298.77  62688 62694 62700 62705 62711 62717 
2321.91  62723 62729 62735 62741 62747 62753 
2345.05  62759 62765 62771 62777 62783 62788 
2368.19  62794 62800 62806 62812 62818 62824 
2391.33  62830 62836 62842 62857 62867 62864 
2414.48  62851 62837 62828 62822 62800 62763 
2437.62  62722 62693 62676 62666 62659 62654 
2460.76  62650 62646 62630 62604 62573 62544 
2483.90  62516 62487 62456 62431 62423 62431 
2507.04  62441 62436 62422 62407 62385 62353 
2530.19  62320 62296 62285 62280 62278 62273 
2553.33  62262 62254 62255 62260 62250 62235 
2576.47  62234 62241 62232 62195 62153 62130 
2599.61  62128 62126 62116 62112 62112 62098 
2622.75  62064 62030 61998 61947 61871 61786 
2645.90  61712 61656 61624 61610 61591 61550 
2669.04  61490 61424 61361 61314 61286 61263 
2692.18  61236 61205 61178 61158 61151 61161 
2715.32  61167 61146 61111 61101 61121 61146 
2738.46  61162 61179 61201 61214 61208 61189 
2761.61  61173 61164 61152 61126 61087 61035 
2784.75  60973 60915 60879 60858 60830 60782 
2807.89  60707 60609 60493 60355 60178 59961 
2831.03  59707 59404 59014 58492 57825 57114 
2854.17  56466 55737 54639 53119 51784 51320 
2877.32  51756 52486 52892 52751 52152 51245 
2900.46  50148 49056 48298 48129 48388 48448 
2923.60  47722 46343 45141 44739 44788 44482 
2946.74  43731 43342 43972 45440 47221 48973 
2969.88  50306 50795 50749 51318 53194 55737 
2993.03  57784 59042 59757 60056 59988 59875 
3016.17  60044 60425 60737 60888 60958 60996 
3039.31  60976 60903 60867 60970 61214 61482 
3062.45  61665 61755 61781 61742 61655 61595 
3085.59  61605 61631 61598 61518 61453 61402 
3108.74  61308 61162 61030 60974 60965 60934 
3131.88  60848 60742 60653 60566 60440 60292 
3155.02  60170 60070 59936 59752 59544 59341 
3178.16  59149 58961 58756 58508 58226 57940 
3201.30  57654 57339 56984 56637 56326 56037 
3224.45  55737 55467 55227 55032 54870 54722 
3247.59  54568 54396 54214 54030 53808 53511 
3270.73  53166 52837 52541 52223 51829 51364 
3293.87  50875 50377 49825 49165 48387 47559 
3317.01  46735 45901 45012 44073 43128 42193 
3340.16  41236 40204 39073 37869 36597 35226 
3363.30  33761 32293 30914 29627 28415 27301 
3386.44  26301 25438 24758 24289 23970 23736 
3409.58  23576 23525 23640 23937 24350 24787 
3432.72  25238 25721 26210 26691 27195 27761 
3455.87  28361 28988 29717 30623 31651 32656 
3479.01  33588 34540 35583 36645 37604 38475 
3502.15  39382 40426 41563 42621 43452 44105 
3525.29  44831 45765 46731 47481 47970 48411 
3548.43  49089 49995 50730 50983 51034 51586 
3571.58  52730 53757 54212 54283 54466 55004 
3594.72  55737 56355 56811 56990 56950 57072 
3617.86  57601 58163 58369 58601 59372 60152 
3641.00  60100 59163 58439 58986 60153 60888 
3664.14  60768 59788 58724 58832 59678 59997 
3687.29  59641 59537 60116 60598 60407 59806 
3710.43  59452 59478 59533 59401 58992 58280 
3733.57  57571 57327 57371 57210 57047 57505 
3756.71  58323 58844 59006 59173 59411 59446 
3779.85  59284 59278 59444 59314 58579 57659 
3803.00  57474 58018 58302 57783 56960 56879 
3826.14  57374 57386 56642 56117 56503 56913 
3849.28  56637 56139 56202 56418 56212 55930 
3872.42  56121 56448 56413 56236 56389 56621 
3895.56  56368 55776 55748 56434 56939 56828 
3918.71  56463 56297 56283 56305 56416 56485 
3941.85  56327 56113 56139 56321 56402 56388 
3964.99  56379 56342 56229 56121 56074 56033 
3988.13  55955 55863 55793 55737 
##END= 
