##TITLE= Mattson Instruments
##JCAMP_DX= 4.24
##OWNER= 
##ORIGIN= 
##DATA TYPE= INFRARED SPECTRUM
##YUNITS= % Transmittance
##XUNITS= 1/CM
##FIRSTX= 401.12365566
##FIRSTY= 52.19009017
##LASTX= 3999.66568195
##XFACTOR= 1.00000000
##YFACTOR= 0.00074992
##MINY= 26.75477600
##MAXY= 75.90015411
##DELTAX= 3.85695822
##NPOINTS= 934
##XYDATA= (X++(Y..Y))
401.12  69594 71576 73103 73960 74664 75890 
424.26  77536 79058 80214 81027 81679 82342 
447.40  82926 83235 83383 83678 84077 84289 
470.54  84334 84457 84640 84703 84711 84822 
493.69  84953 84933 84820 84768 84754 84670 
516.83  84532 84442 84429 84454 84530 84717 
539.97  85018 85396 85836 86309 86726 87041 
563.11  87307 87592 87900 88216 88533 88807 
586.25  88992 89097 89153 89164 89117 88996 
609.39  88786 88498 88163 87802 87430 87082 
632.54  86785 86556 86399 86261 86130 86165 
655.68  86441 86678 86644 86655 87200 88060 
678.82  88712 89094 89454 89888 90282 90562 
701.96  90746 90861 90916 90921 90868 90761 
725.10  90592 90319 89906 89413 89011 88863 
748.24  89011 89359 89764 90148 90500 90811 
771.39  91054 91218 91302 91311 91255 91135 
794.53  90926 90568 89971 89010 87605 85916 
817.67  84435 83755 84160 85449 87118 88678 
840.81  89849 90559 90858 90823 90499 89913 
863.95  89145 88383 87844 87592 87470 87273 
887.10  86943 86549 86156 85779 85407 85003 
910.24  84513 83947 83462 83327 83704 84425 
933.38  85092 85454 85621 85834 86154 86464 
956.52  86664 86758 86795 86826 86879 86951 
979.66  87028 87115 87220 87342 87469 87581 
1002.80  87638 87585 87355 86848 85935 84488 
1025.95  82376 79521 76078 72550 69748 68606 
1049.09  69735 72826 76534 79227 79993 79003 
1072.23  77044 74855 72836 71086 69582 68371 
1095.37  67612 67273 66673 64635 60409 54486 
1118.51  48439 43961 42050 42899 46363 52277 
1141.65  60097 68429 75490 80177 82582 83450 
1164.80  83405 82671 81257 79219 76755 74017 
1187.94  71006 67748 64480 61523 59078 57213 
1211.08  55958 55286 55107 55331 55905 56785 
1234.22  57913 59222 60642 62102 63532 64860 
1257.36  66028 67015 67845 68569 69268 70026 
1280.51  70915 71980 73211 74512 75729 76736 
1303.65  77485 78010 78390 78716 79063 79428 
1326.79  79708 79790 79742 79828 80235 80813 
1349.93  81253 81383 81198 80701 79867 78825 
1373.07  78001 77896 78566 79521 80256 80622 
1396.21  80790 81037 81489 81932 82060 81975 
1419.36  82275 83201 84202 84861 85243 85232 
1442.50  84305 82302 79750 77683 77273 78462 
1465.64  80082 81743 84000 86848 89211 90541 
1488.78  91328 92318 93277 93454 92977 92882 
1511.92  93378 93582 93375 93674 94606 95041 
1535.06  94365 93389 93741 94887 95145 94260 
1558.21  93568 94211 95016 95076 94851 95031 
1581.35  95374 95302 94753 94007 93216 92299 
1604.49  91180 89872 88358 86701 85245 84233 
1627.63  83379 82409 81581 81161 80718 79873 
1650.77  79236 79654 80330 80195 79179 77835 
1673.91  76542 74914 72563 69902 67447 64680 
1697.06  60756 56099 52266 49074 45469 41530 
1720.20  38531 36826 35894 35676 36219 37201 
1743.34  38596 40779 44100 48734 54534 60871 
1766.48  67110 73149 78866 83571 86864 89004 
1789.62  90408 91487 92576 93642 94442 94996 
1812.77  95522 95956 96019 95787 95786 96220 
1835.91  96598 96561 96423 96664 97173 97502 
1859.05  97445 97132 96896 97044 97487 97811 
1882.19  97799 97627 97570 97683 97824 97866 
1905.33  97797 97677 97542 97406 97342 97435 
1928.47  97597 97624 97442 97199 97087 97126 
1951.62  97161 97087 96961 96900 96929 96994 
1974.76  97059 97091 97046 96940 96872 96911 
1997.90  97021 97115 97147 97127 97098 97101 
2021.04  97143 97200 97241 97256 97262 97272 
2044.18  97294 97327 97361 97374 97363 97356 
2067.32  97375 97414 97458 97490 97505 97517 
2090.47  97545 97591 97641 97685 97723 97758 
2113.61  97786 97810 97831 97851 97860 97851 
2136.75  97838 97833 97828 97806 97765 97724 
2159.89  97697 97680 97665 97651 97642 97633 
2183.03  97613 97581 97550 97527 97504 97472 
2206.18  97437 97401 97363 97313 97253 97191 
2229.32  97127 97049 96955 96863 96782 96701 
2252.46  96609 96508 96406 96305 96203 96083 
2275.60  95962 95842 95721 95600 95480 95359 
2298.74  95239 95118 94998 94877 94756 94636 
2321.88  94515 94395 94274 94154 94033 93913 
2345.03  93792 93671 93551 93430 93310 93189 
2368.17  93069 92948 92827 92707 92586 92466 
2391.31  92345 92225 92104 91983 91863 91673 
2414.45  91484 91289 91099 90915 90713 90486 
2437.59  90260 90046 89827 89597 89366 89135 
2460.73  88895 88653 88412 88165 87906 87641 
2483.88  87377 87110 86835 86550 86267 86007 
2507.02  85774 85552 85324 85101 84900 84718 
2530.16  84544 84382 84240 84117 84008 83916 
2553.30  83837 83760 83683 83618 83559 83482 
2576.44  83383 83280 83185 83088 82983 82871 
2599.58  82754 82630 82501 82368 82234 82106 
2622.73  81998 81918 81867 81842 81841 81862 
2645.87  81912 81997 82102 82206 82302 82389 
2669.01  82458 82499 82520 82533 82531 82503 
2692.15  82458 82410 82353 82275 82174 82064 
2715.29  81945 81814 81670 81517 81359 81197 
2738.44  81036 80880 80736 80607 80481 80344 
2761.58  80199 80055 79899 79709 79479 79229 
2784.72  78977 78729 78476 78209 77930 77642 
2807.86  77339 77018 76686 76353 76013 75660 
2831.00  75303 74952 74606 74261 73909 73538 
2854.14  73139 72729 72314 71874 71392 70896 
2877.29  70425 69994 69604 69263 68953 68633 
2900.43  68285 67934 67598 67263 66909 66543 
2923.57  66170 65766 65292 64767 64336 64200 
2946.71  64437 64907 65364 65650 65736 65607 
2969.85  65177 64355 63217 62041 61161 60768 
2992.99  60887 61431 62226 63042 63720 64250 
3016.14  64684 65020 65222 65293 65290 65260 
3039.28  65228 65204 65202 65222 65235 65213 
3062.42  65171 65147 65133 65080 64982 64910 
3085.56  64907 64927 64899 64815 64712 64592 
3108.70  64423 64210 64021 63918 63877 63802 
3131.85  63638 63433 63259 63099 62901 62688 
3154.99  62526 62401 62241 62036 61838 61658 
3178.13  61457 61230 61015 60823 60614 60361 
3201.27  60103 59886 59692 59472 59235 59017 
3224.41  58805 58572 58341 58147 57973 57777 
3247.55  57567 57379 57220 57062 56870 56638 
3270.70  56407 56224 56079 55905 55675 55432 
3293.84  55227 55049 54853 54637 54459 54336 
3316.98  54205 54019 53821 53658 53497 53306 
3340.12  53125 52986 52857 52709 52550 52400 
3363.26  52271 52175 52112 52063 52023 51994 
3386.40  51966 51947 51975 52058 52157 52240 
3409.55  52309 52385 52489 52640 52837 53056 
3432.69  53257 53398 53491 53619 53855 54168 
3455.83  54475 54771 55113 55509 55897 56254 
3478.97  56634 57097 57639 58213 58784 59333 
3502.11  59882 60504 61238 62003 62667 63217 
3525.25  63817 64607 65510 66333 67003 67644 
3548.40  68460 69450 70341 70909 71362 72199 
3571.54  73470 74647 75370 75776 76277 77111 
3594.68  78134 79089 79855 80434 80937 81627 
3617.82  82637 83677 84521 85560 87132 88595 
3640.96  89231 89200 89564 91069 93040 94500 
3664.11  94988 94612 94369 95341 96792 97480 
3687.25  97439 97654 98458 99033 98877 98416 
3710.39  98352 98659 98833 98681 98277 97708 
3733.53  97238 97142 97217 97146 97244 97976 
3756.67  98930 99511 99750 100001 100282 100334 
3779.81  100223 100290 100482 100287 99470 98591 
3802.96  98554 99198 99472 98949 98335 98602 
3826.10  99304 99325 98619 98343 98972 99405 
3849.24  99046 98627 98892 99177 98916 98619 
3872.38  98866 99223 99184 99058 99322 99653 
3895.52  99495 99097 99328 100189 100753 100655 
3918.66  100372 100367 100497 100552 100610 100676 
3941.81  100625 100521 100537 100643 100716 100738 
3964.95  100722 100674 100679 100794 100921 100968 
3988.09  100989 101056 101140 101210 
##END= 
