##TITLE= Mattson Instruments
##JCAMP_DX= 4.24
##OWNER= 
##ORIGIN= 
##DATA TYPE= INFRARED SPECTRUM
##YUNITS= % Transmittance
##XUNITS= 1/CM
##FIRSTX= 401.12781972
##FIRSTY= 26.22260093
##LASTX= 3999.70720246
##XFACTOR= 1.00000000
##YFACTOR= 0.00061240
##MINY= 0.00000102
##MAXY= 40.13333511
##DELTAX= 3.85699826
##NPOINTS= 934
##XYDATA= (X++(Y..Y))
401.12  42819 44150 44825 44592 43841 42819 
424.26  39822 36872 35964 38398 42819 46749 
447.41  48568 48913 48808 48626 48285 47816 
470.55  47481 47268 46725 45838 45493 46374 
493.69  47865 48824 48944 48747 48713 48872 
516.83  49064 49144 49053 48826 48509 48075 
539.97  47522 46981 46550 46136 45626 44977 
563.12  44082 42819 41653 39643 36290 32671 
586.26  31786 35683 42819 48884 52552 54127 
609.40  54618 54560 54211 53785 53350 52841 
632.54  52270 51708 51103 50387 49668 49059 
655.68  48444 47589 46318 44722 43448 42819 
678.83  42213 40322 37707 35293 32208 27913 
701.97  25356 28252 35723 42819 45844 45760 
725.11  44653 42819 39347 33710 27656 22707 
748.25  19115 18300 23056 32941 42819 48210 
771.39  50249 51334 51944 51852 51397 50654 
794.54  49580 48359 46340 42819 40923 42819 
817.68  47156 51327 52619 51825 50709 49779 
840.82  48613 46722 44324 42819 42819 45125 
863.96  46601 46427 45406 44219 42819 40992 
887.10  39068 37191 35642 34791 34754 35454 
910.25  36723 38046 38864 39441 40675 42819 
933.39  45095 46856 48095 49056 49816 50389 
956.53  50846 51226 51520 51725 51820 51754 
979.67  51591 51539 51667 51792 51754 51564 
1002.81  51241 50802 50319 49738 49047 48656 
1025.96  48859 49161 49045 48506 46799 42819 
1049.10  40755 42819 47859 54009 56919 57030 
1072.24  56788 56781 56493 55936 55264 54514 
1095.38  53778 52732 51053 49721 50134 51809 
1118.52  52851 52565 51818 51192 50467 49536 
1141.67  48438 46842 44682 42819 42085 41571 
1164.81  40512 39759 40525 42293 43553 43745 
1187.95  43194 42120 40569 38408 35468 32898 
1211.09  33244 37258 41958 43889 42952 41285 
1234.23  39922 38306 35947 32907 28884 23277 
1257.38  17104 13988 17106 24926 31985 34362 
1280.52  32659 29488 26135 22188 16998 11173 
1303.66  7069 7333 12595 20987 29833 37303 
1326.80  42819 46595 49352 51484 53042 53923 
1349.94  54026 53413 52352 51174 50108 49188 
1373.09  48238 46949 45143 42819 40297 36959 
1396.23  33043 29894 28999 29371 27554 21963 
1419.37  16821 18257 26081 35350 42819 47928 
1442.51  51655 53744 54343 54628 55734 57406 
1465.65  58628 59044 59134 59532 60117 60328 
1488.80  60032 59623 59202 58347 57075 56212 
1511.94  56102 56030 55632 55407 55531 55353 
1535.08  54439 53064 51959 51293 50185 47520 
1558.22  43994 42819 44872 46241 44740 42819 
1581.36  42819 46164 48628 48917 48212 47445 
1604.51  46469 45283 44108 42819 41408 40185 
1627.65  39271 38503 37855 37212 36138 34393 
1650.79  32272 30259 28300 25847 22373 17973 
1673.93  13616 9757 5862 2125 0 72 
1697.07  1489 3330 5821 9709 15363 22519 
1720.22  29684 35387 39554 42819 45827 48817 
1743.36  51545 53947 56152 58156 59792 60909 
1766.50  61517 61923 62546 63367 63967 64129 
1789.64  64057 64102 64407 64833 65162 65338 
1812.78  65462 65534 65385 65002 64656 64486 
1835.93  64257 63825 63512 63698 64216 64607 
1859.07  64664 64485 64285 64247 64375 64459 
1882.21  64331 64047 63725 63362 63003 62864 
1905.35  63087 63500 63805 63898 63896 63907 
1928.49  63899 63765 63480 63132 62845 62629 
1951.64  62362 61991 61716 61800 62216 62669 
1974.78  62946 63050 63035 62934 62799 62692 
1997.92  62635 62618 62617 62592 62520 62429 
2021.06  62371 62367 62399 62433 62450 62445 
2044.20  62418 62372 62309 62222 62103 61964 
2067.35  61817 61654 61454 61217 60966 60727 
2090.49  60509 60281 60032 59817 59716 59745 
2113.63  59840 59903 59868 59736 59559 59397 
2136.77  59293 59262 59286 59337 59399 59468 
2159.91  59524 59540 59501 59414 59300 59182 
2183.06  59072 58960 58834 58691 58540 58396 
2206.20  58271 58153 58021 57882 57755 57642 
2229.34  57530 57412 57290 57168 57043 56916 
2252.48  56784 56649 56522 56417 56333 56239 
2275.62  56112 55950 55747 55496 55209 54909 
2298.77  54758 54606 54454 54302 54150 53998 
2321.91  53846 53694 53542 53390 53238 53086 
2345.05  52935 52783 52631 52479 52327 52175 
2368.19  52023 51871 51719 51567 51415 51683 
2391.33  51655 51495 51299 51102 50907 50708 
2414.48  50492 50255 50024 49842 49707 49566 
2437.62  49374 49141 48889 48627 48356 48081 
2460.76  47799 47509 47231 46971 46702 46375 
2483.90  45982 45552 45100 44632 44182 43827 
2507.04  43637 43603 43620 43530 43245 42819 
2530.19  42376 42093 41995 42023 42106 42203 
2553.33  42272 42271 42184 42072 42033 42091 
2576.47  42159 42137 42019 41858 41678 41456 
2599.61  41171 40843 40512 40182 39815 39353 
2622.75  38793 38192 37601 37060 36673 36625 
2645.90  37040 37834 38703 39311 39535 39531 
2669.04  39536 39625 39713 39753 39827 40041 
2692.18  40391 40771 41059 41194 41186 41097 
2715.32  40991 40884 40769 40648 40549 40495 
2738.46  40457 40378 40224 39983 39651 39225 
2761.61  38727 38207 37700 37199 36678 36130 
2784.75  35562 35005 34498 34064 33735 33586 
2807.89  33634 33695 33547 33262 33187 33484 
2831.03  33892 34068 33932 33608 33203 32765 
2854.17  32334 31930 31551 31207 30927 30755 
2877.32  30710 30773 30909 31100 31354 31659 
2900.46  31960 32196 32331 32360 32296 32181 
2923.60  32071 31990 31925 31852 31762 31645 
2946.74  31478 31254 30982 30686 30402 30159 
2969.88  29967 29825 29731 29677 29651 29643 
2993.03  29640 29632 29631 29658 29720 29839 
3016.17  30063 30398 30769 31090 31352 31585 
3039.31  31772 31833 31717 31456 31123 30809 
3062.45  30627 30622 30662 30574 30394 30304 
3085.59  30322 30358 30541 31133 32090 33053 
3108.74  33790 34365 34871 35313 35737 36227 
3131.88  36758 37229 37609 37960 38305 38609 
3155.02  38880 39209 39657 40170 40643 41058 
3178.16  41466 41910 42372 42819 43199 43547 
3201.30  43866 44165 44466 44791 45135 45482 
3224.45  45843 46235 46633 46986 47282 47556 
3247.59  47833 48107 48353 48564 48756 48954 
3270.73  49154 49328 49475 49631 49817 49982 
3293.87  50080 50145 50227 50275 50215 50094 
3317.01  50030 50032 50024 50000 50015 50066 
3340.16  50097 50092 50060 49992 49893 49815 
3363.30  49774 49709 49573 49403 49265 49164 
3386.44  49074 48986 48897 48772 48590 48386 
3409.58  48202 48050 47934 47887 47921 47996 
3432.72  48044 48020 47935 47853 47827 47834 
3455.87  47824 47790 47753 47722 47691 47658 
3479.01  47622 47602 47630 47695 47739 47698 
3502.15  47586 47475 47422 47409 47365 47264 
3525.29  47185 47221 47335 47398 47344 47232 
3548.43  47190 47256 47274 47078 46753 46633 
3571.58  46857 47147 47182 46958 46735 46730 
3594.72  46907 47073 47052 46789 46405 46165 
3617.86  46174 46187 45978 45815 46122 46603 
3641.00  46570 45893 45251 45337 45927 46340 
3664.14  46147 45381 44661 44720 45300 45580 
3687.29  45387 45261 45499 45697 45486 45024 
3710.43  44696 44622 44618 44494 44179 43721 
3733.57  43348 43205 43097 42819 42819 43121 
3756.71  43669 43957 43905 43834 43908 43976 
3779.85  43951 43962 44028 43910 43437 42819 
3803.00  42601 42764 42840 42476 41967 41927 
3826.14  42298 42403 42038 41827 42175 42459 
3849.28  42125 41614 41654 41958 41923 41713 
3872.42  41815 42096 42146 42054 42169 42377 
3895.56  42278 41942 41916 42336 42687 42654 
3918.71  42481 42478 42590 42690 42811 42944 
3941.85  42996 43008 43089 43187 43195 43139 
3964.99  43089 43037 42985 42989 43028 43019 
3988.13  42956 42905 42877 42819 
##END= 
