##TITLE= Mattson Instruments
##JCAMP_DX= 4.24
##OWNER= 
##ORIGIN= 
##DATA TYPE= INFRARED SPECTRUM
##YUNITS= % Transmittance
##XUNITS= 1/CM
##FIRSTX= 401.12365566
##FIRSTY= 55.06798171
##LASTX= 3999.66568195
##XFACTOR= 1.00000000
##YFACTOR= 0.00066118
##MINY= 32.34861373
##MAXY= 75.67903900
##DELTAX= 3.85695822
##NPOINTS= 934
##XYDATA= (X++(Y..Y))
401.12  83286 83131 82814 82233 81736 81786 
424.26  82263 82734 83034 83167 83088 82776 
447.40  82297 81738 81190 80707 80178 79350 
470.54  78112 76808 76200 76906 78750 80612 
493.69  81372 81033 80437 80195 80209 80140 
516.83  79888 79580 79332 79126 78876 78522 
539.97  78069 77564 77035 76473 75871 75235 
563.11  74590 73922 73221 72473 71619 70715 
586.25  70126 70223 70855 71408 71518 71301 
609.39  70950 70490 69866 68961 67823 66762 
632.54  65975 65184 64246 63795 64534 66111 
655.68  67375 67685 67327 66885 66784 67039 
678.82  67461 67988 68677 69502 70342 71106 
701.96  71756 72276 72668 72968 73259 73625 
725.10  74105 74659 75212 75833 76763 78122 
748.24  79666 81057 82153 82884 83071 82720 
771.39  82283 82298 82872 83813 85029 86529 
794.53  88172 89731 91145 92497 93777 94939 
817.67  96000 96953 97714 98212 98329 97789 
840.81  96357 94374 92685 91752 90787 88170 
863.95  83384 78434 76207 77138 78627 78520 
887.10  77832 79164 83470 89328 94611 98023 
910.24  99358 99245 98722 98394 97672 95444 
933.38  92003 89660 90381 93403 96247 97498 
956.52  97449 96655 95219 93289 91136 88737 
979.66  85827 82264 78057 73357 68855 65905 
1002.80  65448 66656 67578 67575 68037 70006 
1025.95  72415 73505 72743 70507 67311 64192 
1049.09  62555 62941 64756 67028 68748 69115 
1072.23  68192 66646 64630 61853 58794 56788 
1095.37  56843 58814 61524 63615 64842 66389 
1118.51  69275 72804 75424 76716 77704 79443 
1141.65  81998 84752 87180 89147 90706 91866 
1164.80  92547 92626 92002 90785 89471 88712 
1187.94  88742 89140 89254 88751 87739 86658 
1211.08  86075 86221 86624 86617 86180 85812 
1234.22  85614 85042 83584 81339 79081 77915 
1257.36  78536 80548 82789 84395 85270 85613 
1280.51  85439 84668 83455 82189 81130 80212 
1303.65  79326 78634 78405 78699 79395 80378 
1326.79  81467 82366 82918 83379 84217 85509 
1349.93  86795 87580 87756 87475 86791 85687 
1373.07  84372 83279 82692 82468 82179 81445 
1396.21  80220 78779 77421 76221 75089 74051 
1419.36  73389 73289 73494 73638 73556 73354 
1442.50  73298 73516 73918 74369 74891 75602 
1465.64  76447 77367 78531 80021 81487 82650 
1488.78  83688 84924 86180 87042 87592 88345 
1511.92  89361 90164 90683 91414 92527 93459 
1535.06  93762 93734 94346 95524 96296 96359 
1558.21  96399 97180 98158 98757 99149 99721 
1581.35  100422 100950 101236 101426 101623 101782 
1604.49  101869 101896 101820 101635 101561 101756 
1627.63  101985 102023 102063 102362 102655 102611 
1650.77  102581 103288 104383 105094 105342 105562 
1673.91  105949 106171 106169 106445 107056 107331 
1697.06  107011 106932 107705 108471 108593 108502 
1720.20  108955 109592 109694 109314 109145 109411 
1743.34  109660 109778 110042 110513 110937 111124 
1766.48  111069 110957 111082 111482 111851 111964 
1789.62  111902 111903 112085 112371 112626 112818 
1812.77  113034 113254 113280 113074 112973 113229 
1835.91  113560 113642 113595 113738 114068 114322 
1859.05  114341 114153 113928 113867 113991 114104 
1882.19  114044 113865 113746 113774 113888 113994 
1905.33  114060 114095 114086 114021 113970 114015 
1928.47  114119 114151 114055 113914 113846 113880 
1951.62  113936 113928 113854 113779 113751 113777 
1974.76  113840 113903 113913 113860 113810 113833 
1997.90  113923 114026 114102 114143 114169 114214 
2021.04  114296 114393 114458 114457 114391 114300 
2044.18  114224 114188 114178 114158 114103 114023 
2067.32  113951 113909 113897 113902 113911 113927 
2090.47  113970 114043 114123 114188 114236 114271 
2113.61  114280 114258 114224 114199 114186 114177 
2136.75  114177 114195 114221 114227 114206 114179 
2159.89  114165 114157 114140 114119 114110 114113 
2183.03  114115 114114 114133 114174 114212 114228 
2206.18  114231 114234 114223 114191 114150 114121 
2229.32  114100 114069 114016 113949 113877 113795 
2252.46  113682 113533 113369 113209 113055 112904 
2275.60  112765 112621 112423 112284 112146 112008 
2298.74  111869 111731 111592 111454 111315 111177 
2321.88  111038 110900 110761 110623 110484 110346 
2345.03  110207 110069 109930 109792 109654 109515 
2368.17  109377 109238 109100 108961 108823 108684 
2391.31  108546 108407 108230 108059 107886 107709 
2414.45  107533 107352 107168 106986 106798 106587 
2437.59  106343 106061 105738 105392 105051 104721 
2460.73  104386 104046 103724 103440 103192 102956 
2483.88  102714 102459 102194 101916 101638 101378 
2507.02  101137 100904 100681 100483 100316 100167 
2530.16  100036 99941 99896 99890 99887 99872 
2553.30  99858 99852 99840 99803 99741 99665 
2576.44  99570 99438 99259 99034 98762 98424 
2599.58  98012 97543 97049 96550 96049 95545 
2622.73  95050 94583 94157 93766 93409 93101 
2645.87  92859 92678 92542 92432 92342 92267 
2669.01  92191 92086 91944 91778 91594 91391 
2692.15  91181 90988 90819 90651 90474 90305 
2715.29  90164 90045 89936 89843 89775 89732 
2738.44  89699 89647 89550 89405 89225 89022 
2761.58  88810 88610 88422 88217 87977 87723 
2784.72  87470 87196 86869 86493 86107 85735 
2807.86  85365 84984 84613 84275 83957 83634 
2831.00  83301 82959 82599 82202 81744 81219 
2854.14  80659 80096 79523 78938 78377 77891 
2877.29  77498 77167 76804 76307 75733 75269 
2900.43  74939 74527 73955 73489 73326 73220 
2923.57  72833 72287 72074 72480 73302 74152 
2946.71  74936 75987 77589 79419 80775 81349 
2969.85  81411 81258 80989 80834 81139 81875 
2992.99  82601 83002 83121 83056 82788 82331 
3016.14  81780 81196 80591 79994 79407 78794 
3039.28  78149 77509 76882 76238 75573 74916 
3062.42  74276 73641 72983 72286 71563 70848 
3085.56  70156 69466 68761 68055 67364 66672 
3108.70  65951 65214 64512 63880 63292 62704 
3131.85  62119 61570 61068 60579 60077 59599 
3154.99  59189 58836 58476 58086 57705 57366 
3178.13  57056 56757 56487 56257 56022 55738 
3201.27  55438 55176 54923 54610 54250 53912 
3224.41  53604 53278 52945 52683 52525 52426 
3247.55  52335 52250 52184 52120 52006 51807 
3270.70  51548 51282 51021 50716 50340 49944 
3293.84  49616 49377 49176 49006 48924 48940 
3316.98  48971 48961 48947 48966 48994 49017 
3340.12  49069 49156 49246 49318 49353 49318 
3363.26  49231 49173 49188 49234 49270 49291 
3386.40  49281 49225 49160 49152 49230 49354 
3409.55  49470 49572 49692 49830 49959 50112 
3432.69  50392 50834 51358 51898 52481 53135 
3455.83  53795 54385 54941 55558 56245 56913 
3478.97  57529 58149 58811 59471 60093 60704 
3502.11  61343 62017 62709 63398 64056 64673 
3525.25  65275 65894 66530 67160 67767 68373 
3548.40  69069 69914 70799 71532 72105 72765 
3571.54  73680 74671 75503 76141 76730 77409 
3594.68  78185 78985 79722 80307 80737 81206 
3617.82  81891 82631 83164 83609 84319 85169 
3640.96  85722 85820 85804 86173 86960 87842 
3664.11  88419 88362 87923 88006 88731 89333 
3687.25  89475 89590 90070 90607 90831 90808 
3710.39  90840 91030 91278 91499 91583 91441 
3733.53  91260 91367 91699 91943 92148 92638 
3756.67  93341 93941 94375 94782 95161 95376 
3779.81  95475 95703 96107 96391 96278 95913 
3802.96  95853 96298 96740 96710 96403 96515 
3826.10  97067 97328 96989 96707 97079 97527 
3849.24  97426 97097 97254 97646 97710 97605 
3872.38  97830 98239 98378 98322 98508 98881 
3895.52  98970 98717 98675 99107 99546 99643 
3918.66  99564 99572 99627 99646 99725 99879 
3941.81  99971 99992 100068 100209 100325 100406 
3964.95  100481 100522 100514 100513 100550 100588 
3988.09  100598 100601 100626 100678 
##END= 
