##TITLE= Mattson Instruments
##JCAMP_DX= 4.24
##OWNER= 
##ORIGIN= 
##DATA TYPE= INFRARED SPECTRUM
##YUNITS= % Transmittance
##XUNITS= 1/CM
##FIRSTX= 401.12365566
##FIRSTY= 71.23091125
##LASTX= 3999.66568195
##XFACTOR= 1.00000000
##YFACTOR= 0.00107361
##MINY= 9.18092536
##MAXY= 79.53895568
##DELTAX= 3.85695822
##NPOINTS= 934
##XYDATA= (X++(Y..Y))
401.12  66347 65839 63704 63113 65646 69922 
424.26  72440 71840 69312 67324 68054 70922 
447.40  73317 74085 74013 73984 74004 73809 
470.54  73475 73216 73043 72871 72745 72706 
493.69  72648 72529 72395 72167 71806 71434 
516.83  70972 70258 69487 68490 66037 61560 
539.97  57180 56032 58524 61761 62764 60840 
563.11  57217 54040 53281 55425 59277 63238 
586.25  66414 68564 69800 70511 71038 71406 
609.39  71564 71595 71562 71474 71398 71361 
632.54  71265 71110 70966 70748 70403 70066 
655.68  69640 68805 67432 65451 62952 61075 
678.82  61531 64645 68271 70066 70176 69933 
701.96  69821 69645 69324 68964 68593 68093 
725.10  67464 66998 66676 66013 65010 63901 
748.24  61785 58018 54500 52972 51504 48421 
771.39  47265 51985 59724 64358 64732 64016 
794.53  63749 63169 62187 61347 60363 58779 
817.67  56934 54968 52037 47361 41362 35620 
840.81  32391 33729 40010 49018 56827 59722 
863.95  56431 50104 46898 49878 55458 58284 
887.10  57563 55827 54165 51919 49134 46517 
910.24  44371 43041 43134 44653 46941 49555 
933.38  52401 55236 57701 59640 61035 61750 
956.52  61682 61229 61196 61908 62791 63207 
979.66  63215 63148 63031 62819 62650 62564 
1002.80  62415 62202 62041 61848 61534 61249 
1025.95  60933 60272 59409 58395 55811 50591 
1049.09  45633 45895 51676 57705 60005 59618 
1072.23  58819 57907 56588 55080 53463 51765 
1095.37  49740 45928 39614 34012 33867 39443 
1118.51  46392 51422 54488 55971 55735 54811 
1141.65  54508 54152 52723 51800 53674 57423 
1164.80  59984 60327 59852 59556 59232 58746 
1187.94  58270 57709 56922 55958 54744 53286 
1211.08  52079 51597 51644 51701 51439 50688 
1234.22  49437 47706 45093 41228 36811 32837 
1257.36  29246 26330 26347 30527 35588 37109 
1280.51  35266 33322 32128 29801 25606 20926 
1303.65  17442 16512 19239 25596 33894 41796 
1326.79  47785 51607 53677 54522 54664 54470 
1349.93  54015 53368 52650 51269 48058 43500 
1373.07  40581 41734 45412 47990 47954 46248 
1396.21  43921 40661 36169 31720 29375 30841 
1419.36  35695 40196 42415 44341 47852 51850 
1442.50  54121 54558 54091 53221 52260 51194 
1465.64  49097 45449 42612 44221 48651 52403 
1488.78  54086 54264 54364 54554 54321 53821 
1511.92  53570 53262 52568 51869 51331 50431 
1535.06  48894 46305 41909 36627 32303 31517 
1558.21  36642 42135 42490 38937 32513 25187 
1581.35  20683 21109 26675 35339 43263 47934 
1604.49  49338 48884 47970 47112 46322 45636 
1627.63  44877 43664 42002 40441 39153 37713 
1650.77  35712 33309 30922 28323 24960 20938 
1673.91  17626 15676 14198 12275 10395 9173 
1697.06  8551 8974 10827 13561 17642 24092 
1720.20  31050 36138 40060 43648 46436 48156 
1743.34  49619 51331 53045 54341 55199 55745 
1766.48  56033 56157 56266 56393 56445 56364 
1789.62  56144 55845 55618 55589 55742 55985 
1812.77  56247 56463 56564 56536 56459 56437 
1835.91  56434 56349 56182 56070 56064 56064 
1859.05  55995 55874 55752 55681 55688 55724 
1882.19  55714 55654 55615 55639 55697 55744 
1905.33  55748 55707 55603 55351 54915 54518 
1928.47  54464 54760 55136 55354 55402 55392 
1951.62  55387 55374 55334 55267 55182 55098 
1974.76  55027 54948 54822 54634 54415 54204 
1997.90  54028 53914 53875 53883 53890 53870 
2021.04  53812 53707 53551 53361 53186 53082 
2044.18  53074 53140 53238 53336 53418 53484 
2067.32  53527 53524 53459 53341 53181 52982 
2090.47  52750 52509 52301 52164 52099 52065 
2113.61  52010 51914 51788 51643 51477 51285 
2136.75  51093 50952 50872 50816 50759 50707 
2159.89  50652 50555 50392 50174 49929 49691 
2183.03  49491 49356 49290 49270 49254 49209 
2206.18  49131 49037 48944 48868 48816 48786 
2229.32  48774 48766 48737 48673 48584 48484 
2252.46  48375 48247 48089 47906 47728 47569 
2275.60  47416 47257 47113 47007 46923 46822 
2298.74  46676 46508 46365 46260 46174 46095 
2321.88  46030 45966 45875 45722 45468 45148 
2345.03  44887 44742 44637 44468 44198 43883 
2368.17  43573 43277 42997 42732 42488 42275 
2391.31  42086 41894 41688 41485 41303 41144 
2414.45  41002 40870 40735 40578 40389 40175 
2437.59  39951 39718 39469 39202 38924 38639 
2460.73  38348 38050 37736 37400 37032 36628 
2483.88  36191 35722 35217 34685 34162 33719 
2507.02  33433 33323 33312 33272 33114 32839 
2530.16  32499 32140 31773 31411 31135 31078 
2553.30  31315 31776 32300 32752 33083 33298 
2576.44  33416 33449 33411 33306 33131 32889 
2599.58  32599 32281 31942 31573 31160 30696 
2622.73  30197 29700 29233 28808 28435 28145 
2645.87  28009 28142 28646 29490 30457 31233 
2669.01  31611 31594 31361 31155 31169 31436 
2692.15  31802 32052 32093 32002 31908 31848 
2715.29  31770 31646 31545 31564 31737 32015 
2738.44  32310 32520 32556 32398 32100 31731 
2761.58  31324 30884 30440 30026 29636 29221 
2784.72  28760 28280 27813 27361 26915 26490 
2807.86  26119 25841 25711 25779 26063 26515 
2831.00  27013 27401 27563 27486 27245 26929 
2854.14  26594 26270 25988 25773 25631 25568 
2877.29  25588 25673 25788 25915 26063 26223 
2900.43  26352 26409 26393 26332 26248 26140 
2923.57  26017 25916 25884 25933 26025 26109 
2946.71  26158 26175 26147 26057 25919 25785 
2969.85  25688 25626 25578 25537 25513 25531 
2992.99  25591 25663 25745 25864 26027 26205 
3016.14  26368 26490 26546 26561 26638 26884 
3039.28  27299 27754 28094 28262 28268 28075 
3062.42  27642 27100 26749 26781 27115 27500 
3085.56  27726 27784 27900 28340 29109 29936 
3108.70  30609 31156 31665 32117 32476 32785 
3131.85  33103 33441 33781 34126 34479 34824 
3154.99  35140 35422 35690 35968 36263 36570 
3178.13  36883 37205 37552 37934 38322 38658 
3201.27  38927 39168 39416 39668 39917 40179 
3224.41  40482 40828 41192 41552 41895 42192 
3247.55  42415 42590 42780 43005 43237 43469 
3270.70  43705 43903 44007 44041 44084 44173 
3293.84  44272 44356 44455 44581 44663 44639 
3316.98  44549 44469 44410 44362 44365 44452 
3340.12  44582 44684 44732 44747 44756 44776 
3363.26  44790 44765 44680 44542 44386 44270 
3386.40  44245 44299 44361 44364 44307 44238 
3409.55  44183 44125 44061 44031 44062 44116 
3432.69  44111 44018 43894 43819 43822 43874 
3455.83  43946 44013 44023 43948 43843 43796 
3478.97  43824 43877 43922 43961 43977 43927 
3502.11  43805 43688 43663 43718 43757 43705 
3525.25  43586 43509 43542 43640 43712 43718 
3548.40  43712 43748 43765 43658 43429 43273 
3571.54  43329 43468 43541 43532 43489 43442 
3594.68  43413 43440 43512 43538 43471 43419 
3617.82  43505 43634 43624 43493 43484 43632 
3640.96  43713 43553 43255 43168 43318 43501 
3664.11  43599 43508 43193 42956 42994 43063 
3687.25  42982 42894 43012 43195 43211 43028 
3710.39  42828 42732 42661 42564 42481 42443 
3733.53  42438 42458 42436 42258 41968 41844 
3756.67  41926 41990 41935 41877 41922 41975 
3779.81  41927 41855 41909 42049 42097 41958 
3802.96  41807 41854 41987 41992 41823 41719 
3826.10  41828 41941 41830 41560 41464 41510 
3849.24  41431 41191 41068 41108 41095 40998 
3872.38  40989 41073 41083 40969 40863 40839 
3895.52  40802 40702 40676 40810 40948 40932 
3918.66  40759 40585 40509 40485 40457 40410 
3941.81  40365 40356 40383 40378 40317 40267 
3964.95  40261 40232 40140 40071 40115 40235 
3988.09  40334 40370 40365 40338 
##END= 
