##TITLE= Mattson Instruments
##JCAMP_DX= 4.24
##OWNER= 
##ORIGIN= 
##DATA TYPE= INFRARED SPECTRUM
##YUNITS= % Transmittance
##XUNITS= 1/CM
##FIRSTX= 401.12781972
##FIRSTY= 16.20424652
##LASTX= 3999.70720246
##XFACTOR= 1.00000000
##YFACTOR= 0.00041180
##MINY= 0.00000102
##MAXY= 26.98706626
##DELTAX= 3.85699826
##NPOINTS= 934
##XYDATA= (X++(Y..Y))
401.12  39349 38797 39190 39349 40453 41048 
424.26  41553 41851 42126 42790 43700 44257 
447.41  44262 44017 43786 43634 43507 43305 
470.55  43014 42728 42462 42118 41705 41340 
493.69  41017 40631 40186 39764 39349 38913 
516.83  38430 37951 37465 36940 36443 36134 
539.97  36055 36026 35840 35601 35640 36094 
563.12  36705 37092 37114 36901 36607 36197 
586.26  35526 34568 33503 32590 31937 31474 
609.40  31113 30896 30923 31225 31777 32542 
632.54  33430 34234 34744 35067 35741 37261 
655.68  39349 41027 42078 42757 43371 43872 
678.83  44150 44227 44151 43936 43571 42994 
701.97  42137 40958 39349 37454 35489 34362 
725.11  34604 35759 37030 38165 39349 40452 
748.25  41380 41946 42107 41795 40844 39349 
771.39  38564 39349 41770 45160 47826 49055 
794.54  49326 49253 49001 48602 48119 47478 
817.68  46616 45593 44164 41883 39349 39349 
840.82  41166 44321 46555 47186 47041 46762 
863.96  46313 45654 44960 44289 43537 42673 
887.10  41775 40913 40122 39349 38388 36808 
910.25  35024 34349 35556 37621 38801 38609 
933.39  37840 37109 36381 35559 34695 33780 
956.53  32775 31715 30610 29424 28139 26726 
979.67  25144 23413 21711 20488 20288 21160 
1002.81  22384 23167 23430 23602 23909 24270 
1025.96  24775 25784 27282 28430 28379 27516 
1049.10  27296 28708 31508 34865 37822 39312 
1072.24  38968 37943 37827 38695 39078 37758 
1095.38  34911 31699 29289 28189 28310 29526 
1118.52  31807 34699 37250 38749 39102 38433 
1141.67  37007 35640 35442 36867 39349 41912 
1164.81  44157 46105 47836 49181 49901 50017 
1187.95  49642 48625 46913 45309 45084 46315 
1211.09  47267 46239 43785 42301 43375 46222 
1234.23  48895 50297 50604 50352 49778 48900 
1257.38  47774 46537 45386 44493 43873 43404 
1280.52  42997 42565 41952 41229 40905 41353 
1303.66  42205 42765 42757 42221 41087 39349 
1326.80  37444 35700 34356 33593 33506 33952 
1349.94  34544 34658 33634 31382 28461 25316 
1373.09  22506 21683 24444 29987 35502 38721 
1396.23  39610 39478 39129 38658 38023 37097 
1419.37  35746 34103 32198 29656 26287 22613 
1442.51  19295 16501 14225 12529 11629 12086 
1465.65  14793 20971 30468 39349 44643 47697 
1488.80  50152 52277 53762 54658 55287 56051 
1511.94  56918 57513 57931 58680 59619 60091 
1535.08  59997 59950 60644 61478 61739 61588 
1558.22  61787 62602 63263 63557 63863 64389 
1581.36  64862 65095 65193 65304 65441 65534 
1604.51  65530 65419 65205 64966 64858 64873 
1627.65  64781 64503 64255 64137 63859 63306 
1650.79  62991 63366 63783 63719 63357 63097 
1673.93  63011 62878 62783 63002 63293 63215 
1697.07  62874 62930 63402 63554 63294 63201 
1720.22  63593 63862 63638 63200 63020 63024 
1743.36  62876 62671 62693 62898 63014 62924 
1766.50  62702 62541 62630 62892 63059 63001 
1789.64  62820 62717 62789 62935 63014 63001 
1812.78  62953 62830 62521 62077 61754 61637 
1835.93  61506 61273 61153 61311 61582 61724 
1859.07  61655 61438 61241 61198 61226 61139 
1882.21  60919 60721 60678 60751 60819 60823 
1905.35  60775 60694 60584 60470 60415 60449 
1928.49  60500 60468 60338 60188 60085 60014 
1951.64  59914 59761 59591 59461 59399 59384 
1974.78  59364 59289 59139 58941 58765 58656 
1997.92  58576 58457 58281 58077 57881 57713 
2021.06  57580 57467 57358 57246 57122 56954 
2044.20  56741 56553 56474 56518 56625 56742 
2067.35  56856 56961 57032 57055 57033 56975 
2090.49  56892 56809 56741 56674 56586 56466 
2113.63  56324 56186 56088 56042 56018 55973 
2136.77  55892 55781 55640 55465 55273 55102 
2159.91  54984 54931 54938 54980 55022 55047 
2183.06  55057 55050 55013 54941 54852 54778 
2206.20  54739 54734 54746 54764 54784 54796 
2229.34  54792 54776 54753 54713 54644 54548 
2252.48  54434 54299 54138 53968 53815 53699 
2275.62  53627 53588 53547 53460 53308 53107 
2298.77  52869 52582 52460 52338 52217 52095 
2321.91  51973 51851 51729 51607 51486 51364 
2345.05  51242 51120 50998 50877 50755 50633 
2368.19  50511 50389 50267 50146 50374 50447 
2391.33  50388 50261 50123 50009 49923 49843 
2414.48  49741 49610 49480 49374 49286 49188 
2437.62  49070 48943 48829 48735 48633 48488 
2460.76  48300 48097 47909 47740 47574 47397 
2483.90  47223 47074 46942 46806 46673 46563 
2507.04  46474 46388 46292 46166 46009 45832 
2530.19  45653 45486 45346 45246 45186 45141 
2553.33  45080 44975 44820 44640 44463 44284 
2576.47  44070 43811 43529 43250 42987 42744 
2599.61  42524 42336 42177 42031 41872 41691 
2622.75  41508 41334 41154 40938 40691 40433 
2645.90  40174 39910 39637 39349 39038 38752 
2669.04  38558 38466 38416 38351 38285 38257 
2692.18  38262 38273 38280 38266 38184 37996 
2715.32  37738 37494 37332 37275 37315 37410 
2738.46  37491 37495 37395 37211 36981 36725 
2761.61  36438 36112 35741 35307 34790 34186 
2784.75  33522 32843 32175 31494 30743 29883 
2807.89  28886 27706 26300 24623 22560 19901 
2831.03  16516 12614 8777 5609 3473 2287 
2854.17  1844 1928 2237 2515 2781 3183 
2877.32  3637 3789 3459 2842 2227 1729 
2900.46  1330 953 618 319 95 0 
2923.60  1 78 233 478 797 1104 
2946.74  1316 1454 1665 2163 3197 5042 
2969.88  7852 11458 15380 19090 22266 24817 
2993.03  26794 28301 29442 30307 30976 31511 
3016.17  31942 32268 32489 32635 32739 32820 
3039.31  32869 32870 32816 32735 32660 32591 
3062.45  32509 32405 32291 32167 32034 31896 
3085.59  31755 31594 31415 31240 31069 30876 
3108.74  30659 30452 30262 30067 29871 29702 
3131.88  29553 29393 29207 29006 28796 28595 
3155.02  28422 28265 28092 27913 27762 27646 
3178.16  27539 27415 27271 27137 27060 27060 
3201.30  27097 27118 27112 27103 27116 27149 
3224.45  27173 27160 27118 27070 27035 27023 
3247.59  27024 27008 26969 26938 26920 26873 
3270.73  26793 26749 26775 26802 26775 26729 
3293.87  26710 26703 26697 26727 26822 26954 
3317.01  27087 27217 27350 27469 27561 27636 
3340.16  27703 27755 27802 27893 28069 28316 
3363.30  28598 28889 29152 29331 29357 29202 
3386.44  28919 28636 28440 28283 28087 27929 
3409.58  28019 28503 29339 30350 31344 32216 
3432.72  32974 33680 34386 35143 35964 36810 
3455.87  37632 38461 39349 40210 41044 41824 
3479.01  42589 43378 44170 44919 45583 46146 
3502.15  46630 47096 47586 48062 48486 48909 
3525.29  49435 50085 50756 51329 51762 52114 
3548.43  52509 52973 53347 53511 53624 54020 
3571.58  54694 55248 55453 55440 55517 55816 
3594.72  56196 56493 56649 56640 56543 56606 
3617.86  56940 57268 57351 57435 57861 58326 
3641.00  58320 57780 57284 57474 58062 58457 
3664.14  58364 57717 56896 56694 57046 57204 
3687.29  56924 56620 56664 56768 56567 56063 
3710.43  55566 55268 55066 54808 54389 53778 
3733.57  53168 52863 52745 52405 51913 51840 
3756.71  52169 52365 52241 52048 51955 51801 
3779.85  51512 51279 51182 50970 50399 49627 
3803.00  49194 49247 49276 48878 48222 47910 
3826.14  48004 47918 47348 46773 46779 46948 
3849.28  46675 46081 45803 45752 45440 44952 
3872.42  44777 44853 44777 44535 44408 44355 
3895.56  44076 43569 43288 43417 43531 43324 
3918.71  42945 42677 42514 42333 42155 41992 
3941.85  41787 41605 41559 41570 41460 41205 
3964.99  40911 40673 40518 40391 40196 39932 
3988.13  39713 39597 39501 39349 
##END= 
