##TITLE= Mattson Instruments
##JCAMP_DX= 4.24
##OWNER= 
##ORIGIN= 
##DATA TYPE= INFRARED SPECTRUM
##YUNITS= % Transmittance
##XUNITS= 1/CM
##FIRSTX= 401.12365566
##FIRSTY= 19.02676010
##LASTX= 3999.66568195
##XFACTOR= 1.00000000
##YFACTOR= 0.00057421
##MINY= 6.26607036
##MAXY= 43.89648437
##DELTAX= 3.85695822
##NPOINTS= 934
##XYDATA= (X++(Y..Y))
401.12  33135 33092 33924 34836 35241 35708 
424.26  37704 42219 48386 53722 56177 55548 
447.40  52980 49730 46223 41690 35716 31369 
470.54  34373 46456 61458 70916 72379 69430 
493.69  65856 62928 60554 58540 56729 54987 
516.83  53240 51427 49468 47272 44782 41940 
539.97  38423 34001 30161 30582 37926 50254 
563.11  62180 69313 71079 69729 67561 65537 
586.25  63764 62133 60524 58982 57610 56305 
609.39  54997 53861 52794 51473 50099 48648 
632.54  45949 42068 40614 44794 51884 56002 
655.68  55420 53223 51931 51183 50224 49232 
678.82  48388 47617 46915 46167 45242 44339 
701.96  43675 43057 42226 41241 40267 39351 
725.10  38526 37870 37388 36849 35801 34102 
748.24  32516 32244 33635 35756 37366 37960 
771.39  37846 37491 37013 36259 35121 33609 
794.53  31776 29735 27690 25927 24832 24817 
817.67  26164 29011 33345 38678 43808 47352 
840.81  48704 48276 46895 45193 43459 41796 
863.95  40293 39052 38131 37539 37293 37443 
887.10  38042 39097 40513 42078 43571 44870 
910.24  45929 46718 47250 47503 47290 46492 
933.38  45495 44941 44918 44961 44982 45475 
956.52  46581 47724 48403 48654 48629 48347 
979.66  47789 46778 45208 43883 44271 46674 
1002.80  49500 51068 51317 51165 51087 51006 
1025.95  50890 50770 50570 50287 50074 50010 
1049.09  49998 49929 49788 49598 49376 49127 
1072.23  48857 48582 48314 48042 47747 47418 
1095.37  47056 46694 46381 46115 45850 45566 
1118.51  45283 44998 44681 44293 43812 43250 
1141.65  42643 41996 41289 40529 39740 38934 
1164.80  38103 37158 36014 34941 34610 35375 
1187.94  36665 37458 37222 36134 34598 32860 
1211.08  31012 29193 27751 27102 27251 27358 
1234.22  26122 23081 19613 18062 19504 22925 
1257.36  27119 32361 39044 45703 50135 52118 
1280.51  53421 55246 56998 57643 57091 55967 
1303.65  54811 53845 53110 52566 52108 51527 
1326.79  50647 49558 48321 46544 44096 42244 
1349.93  42694 45197 47507 48109 47554 46878 
1373.07  46245 45470 44627 43822 43036 42261 
1396.21  41478 40618 39649 38530 37194 35578 
1419.36  33519 31078 29361 30047 33167 36352 
1442.50  37470 37087 37150 38238 39363 39725 
1465.64  39433 38835 38068 37170 36154 35006 
1488.78  33775 32620 31744 31335 31508 32175 
1511.92  33024 33724 34117 34192 33959 33458 
1535.06  32806 32158 31591 31075 30558 30033 
1558.21  29526 29046 28558 28013 27391 26707 
1581.35  25991 25276 24593 23942 23298 22652 
1604.49  21997 21297 20527 19710 18896 18102 
1627.63  17308 16462 15500 14434 13385 12468 
1650.77  11715 11163 10912 10991 11265 11604 
1673.91  12089 12864 13885 14993 16158 17389 
1697.06  18529 19430 20212 20917 21127 20473 
1720.20  19383 18764 19001 19787 20795 21996 
1743.34  23374 24754 25987 27043 27903 28504 
1766.48  28834 29009 29231 29672 30414 31460 
1789.62  32756 34192 35641 37024 38313 39499 
1812.77  40586 41626 42699 43848 45041 46208 
1835.91  47305 48321 49241 50043 50735 51365 
1859.05  51972 52600 53294 54064 54837 55482 
1882.19  55868 55944 55834 55865 56372 57408 
1905.33  58703 59970 61169 62445 63864 65319 
1928.47  66654 67801 68786 69659 70457 71190 
1951.62  71841 72370 72726 72869 72745 72250 
1974.76  71332 70161 69153 68706 68898 69468 
1997.90  70102 70689 71319 72088 72967 73861 
2021.04  74693 75411 75945 76260 76403 76446 
2044.18  76395 76228 75980 75709 75448 75248 
2067.32  75200 75333 75534 75650 75634 75554 
2090.47  75483 75425 75330 75158 74922 74676 
2113.61  74462 74265 74030 73724 73356 72970 
2136.75  72613 72313 72052 71767 71398 70960 
2159.89  70525 70143 69811 69498 69195 68939 
2183.03  68789 68759 68768 68685 68458 68160 
2206.18  67918 67820 67867 67974 68005 67860 
2229.32  67536 67127 66777 66594 66589 66688 
2252.46  66798 66875 66927 66968 66998 67006 
2275.60  66982 66915 66803 66653 66481 66291 
2298.74  66082 65858 65627 65382 65109 64790 
2321.88  64401 63902 63289 62674 62263 62204 
2345.03  62446 62770 62958 62935 62770 62560 
2368.17  62343 62103 61820 61484 61096 60653 
2391.31  60145 59563 58943 58378 57961 57715 
2414.45  57637 57744 58036 58436 58816 59098 
2437.59  59285 59419 59529 59604 59601 59497 
2460.73  59313 59101 58901 58726 58581 58481 
2483.88  58437 58437 58444 58429 58384 58308 
2507.02  58198 58049 57864 57645 57400 57148 
2530.16  56918 56720 56543 56360 56141 55874 
2553.30  55554 55157 54666 54151 53784 53692 
2576.44  53812 53934 53899 53709 53460 53214 
2599.58  52968 52692 52374 52007 51582 51115 
2622.73  50666 50307 50077 49963 49911 49848 
2645.87  49709 49462 49117 48706 48277 47884 
2669.01  47570 47361 47254 47220 47216 47217 
2692.15  47221 47234 47240 47208 47106 46925 
2715.29  46693 46451 46233 46048 45892 45749 
2738.44  45588 45382 45117 44787 44391 43933 
2761.58  43424 42877 42320 41819 41454 41228 
2784.72  41018 40673 40141 39477 38743 37959 
2807.86  37124 36249 35355 34473 33701 33254 
2831.00  33426 34379 35911 37498 38633 39126 
2854.14  39098 38750 38209 37519 36735 35966 
2877.29  35343 34933 34725 34693 34815 35016 
2900.43  35136 35012 34580 33889 33037 32111 
2923.57  31219 30545 30305 30579 31217 31943 
2946.71  32551 32964 33164 33138 32901 32496 
2969.85  31964 31332 30633 29933 29286 28718 
2992.99  28258 27971 27909 28024 28168 28201 
3016.14  28085 27888 27700 27587 27587 27696 
3039.28  27873 28069 28236 28268 28009 27394 
3062.42  26601 26034 26116 26982 28287 29404 
3085.56  29916 29863 29517 29052 28533 28032 
3108.70  27619 27293 27006 26729 26475 26272 
3131.85  26143 26110 26203 26444 26810 27217 
3154.99  27573 27837 28016 28135 28213 28280 
3178.13  28375 28520 28718 28967 29273 29641 
3201.27  30054 30478 30880 31238 31556 31848 
3224.41  32121 32373 32612 32861 33149 33498 
3247.55  33937 34483 35131 35862 36657 37508 
3270.70  38416 39381 40396 41447 42515 43593 
3293.84  44677 45762 46834 47888 48935 49981 
3316.98  51018 52046 53075 54109 55141 56176 
3340.12  57231 58297 59340 60328 61259 62138 
3363.26  62963 63731 64448 65122 65744 66301 
3386.40  66791 67215 67574 67880 68161 68438 
3409.55  68703 68929 69109 69273 69472 69740 
3432.69  70075 70451 70844 71240 71633 72024 
3455.83  72400 72734 72992 73172 73315 73465 
3478.97  73637 73823 74013 74192 74342 74459 
3502.11  74554 74635 74704 74755 74776 74763 
3525.25  74732 74702 74677 74647 74615 74592 
3548.40  74582 74580 74580 74577 74573 74576 
3571.54  74591 74614 74626 74620 74606 74598 
3594.68  74586 74550 74480 74387 74291 74216 
3617.82  74178 74176 74198 74235 74286 74329 
3640.96  74332 74289 74239 74217 74209 74177 
3664.11  74107 74017 73933 73869 73824 73776 
3687.25  73718 73664 73625 73580 73508 73420 
3710.39  73344 73286 73231 73159 73063 72954 
3733.53  72859 72782 72697 72593 72502 72454 
3756.67  72433 72402 72351 72299 72254 72202 
3779.81  72133 72057 71987 71910 71807 71683 
3802.96  71578 71508 71439 71333 71200 71081 
3826.10  71000 70943 70903 70889 70898 70893 
3849.24  70844 70771 70714 70660 70569 70438 
3872.38  70311 70214 70140 70086 70064 70072 
3895.52  70086 70084 70065 70036 69996 69947 
3918.66  69893 69829 69751 69668 69604 69563 
3941.81  69524 69472 69422 69392 69374 69348 
3964.95  69302 69242 69181 69125 69057 68952 
3988.09  68824 68730 68708 68739 
##END= 
