##TITLE= Mattson Instruments
##JCAMP_DX= 4.24
##OWNER= 
##ORIGIN= 
##DATA TYPE= INFRARED SPECTRUM
##YUNITS= % Transmittance
##XUNITS= 1/CM
##FIRSTX= 401.12365566
##FIRSTY= 74.06838989
##LASTX= 3999.66568195
##XFACTOR= 1.00000000
##YFACTOR= 0.00081203
##MINY= 24.33019447
##MAXY= 77.54587554
##DELTAX= 3.85695822
##NPOINTS= 934
##XYDATA= (X++(Y..Y))
401.12  91213 92626 94129 95172 95496 95417 
424.26  95310 95278 95393 95482 95241 94761 
447.40  94104 92667 90093 87486 86586 87945 
470.54  90536 92500 93051 93126 93160 92473 
493.69  91420 90535 87393 79639 71487 70590 
516.83  78249 87467 91636 91300 90334 89202 
539.97  84707 76195 69588 71618 80823 89336 
563.11  92762 93237 93641 94033 93939 93818 
586.25  93835 93701 93483 93362 93210 92993 
609.39  92863 92783 92615 92424 92295 92036 
632.54  91320 90299 89810 90434 91549 92068 
655.68  91870 91760 92078 92289 91911 91262 
678.82  90754 90370 89975 89537 89057 88631 
701.96  88323 87687 86205 84606 84524 86127 
725.10  87653 87911 87479 87043 86512 85863 
748.24  85176 84196 83016 81808 79421 74903 
771.39  70640 70295 73384 75937 76633 77566 
794.53  79118 79135 77146 74413 70024 62140 
817.67  53150 48353 49299 53067 57765 63817 
840.81  70172 74209 75803 77480 80393 83155 
863.95  84493 84613 84212 83645 83048 82414 
887.10  81683 80877 80029 79083 78027 76851 
910.24  75444 73713 71835 70205 68933 67507 
933.38  65443 63185 61646 60900 60223 59174 
956.52  57673 55835 55000 57460 63365 69262 
979.66  71719 71170 70403 70762 71731 72788 
1002.80  73649 73629 72434 70648 68388 65155 
1025.95  62221 62779 67871 74382 78741 80350 
1049.09  80501 80070 78904 76355 72769 70657 
1072.23  72476 77067 80815 82056 81747 80883 
1095.37  79792 78314 75065 69278 64191 64650 
1118.51  70500 76379 78636 78505 78193 77889 
1141.65  77217 76376 75314 74014 73199 72731 
1164.80  70779 67090 65105 67718 72764 75828 
1187.94  75740 74430 73204 71998 70920 70241 
1211.08  69567 68332 66567 64605 62533 60280 
1234.22  57917 55552 53065 50182 46616 42007 
1257.36  36471 31630 29962 32575 38772 47515 
1280.51  57343 65446 69860 72351 76094 80993 
1303.65  84202 84490 83367 82435 81863 81308 
1326.79  80806 80528 80336 79784 78643 77285 
1349.93  76171 75195 73908 72222 70397 68273 
1373.07  65555 63226 63253 65900 68724 69254 
1396.21  68116 67985 69722 71710 72490 71826 
1419.36  70188 68333 66581 64651 62364 59929 
1442.50  57561 55425 53669 51701 48276 44013 
1465.64  41127 40475 41105 41488 41622 42462 
1488.78  44162 45793 46796 47465 47307 45261 
1511.92  42481 42046 46832 57019 67593 74816 
1535.06  79235 81768 82548 82269 81571 80241 
1558.21  77908 75159 72581 69660 65712 60753 
1581.35  55089 48474 41522 37175 38301 43847 
1604.49  49671 53431 57012 63069 70622 76305 
1627.63  79315 80932 81753 81814 81533 81213 
1650.77  80744 80169 79771 79535 79266 78844 
1673.91  78352 77914 77454 76864 76314 75994 
1697.06  75759 75267 74623 74207 74029 73849 
1720.20  73568 73382 73365 73323 73031 72575 
1743.34  72100 71526 70799 70050 69395 68844 
1766.48  68354 67824 67192 66560 66051 65661 
1789.62  65328 64996 64635 64281 64022 63885 
1812.77  63844 63899 64072 64302 64469 64551 
1835.91  64680 64957 65335 65699 66046 66449 
1859.05  66903 67307 67505 67303 66659 65874 
1882.19  65392 65432 65769 66007 66018 65932 
1905.33  65872 65887 66026 66331 66763 67234 
1928.47  67696 68151 68572 68902 69109 69211 
1951.62  69246 69223 69123 68934 68685 68451 
1974.76  68335 68388 68550 68693 68725 68660 
1997.90  68562 68467 68370 68261 68141 68011 
2021.04  67875 67765 67746 67858 68066 68297 
2044.18  68521 68771 69087 69446 69758 69932 
2067.32  69946 69850 69711 69581 69482 69400 
2090.47  69305 69183 69061 68987 68995 69066 
2113.61  69134 69152 69121 69061 68971 68839 
2136.75  68684 68554 68486 68473 68488 68512 
2159.89  68529 68503 68409 68263 68098 67923 
2183.03  67739 67577 67477 67426 67372 67290 
2206.18  67199 67099 66958 66757 66526 66331 
2229.32  66230 66236 66296 66343 66341 66293 
2252.46  66219 66131 66031 65817 65603 65388 
2275.60  65174 64960 64746 64531 64317 64103 
2298.74  63889 63675 63460 63246 63032 62818 
2321.88  62604 62389 62175 61961 61747 61533 
2345.03  61318 61104 60890 60676 60461 60247 
2368.17  60033 59819 59605 59390 59176 58962 
2391.31  58748 58534 58319 58001 57725 57486 
2414.45  57268 57046 56804 56538 56259 55980 
2437.59  55712 55460 55221 54987 54756 54532 
2460.73  54322 54117 53890 53620 53320 53031 
2483.88  52789 52597 52436 52291 52162 52047 
2507.02  51926 51782 51652 51623 51766 52052 
2530.16  52351 52540 52590 52559 52496 52402 
2553.30  52277 52153 52066 52018 51991 51985 
2576.44  52000 52042 52131 52288 52505 52749 
2599.58  52999 53260 53551 53891 54285 54733 
2622.73  55230 55759 56294 56803 57244 57567 
2645.87  57744 57777 57668 57444 57195 57018 
2669.01  56922 56859 56840 56959 57289 57802 
2692.15  58413 59059 59721 60369 60944 61407 
2715.29  61759 61997 62102 62068 61913 61655 
2738.44  61322 60990 60772 60719 60777 60863 
2761.58  60973 61130 61300 61422 61475 61453 
2784.72  61335 61103 60779 60446 60226 60207 
2807.86  60404 60802 61351 61927 62405 62706 
2831.00  62719 62350 61610 60475 58950 57442 
2854.14  56393 55338 53605 52190 53163 56662 
2877.29  60246 61908 62006 61763 61527 61093 
2900.43  60524 60060 59772 59518 58881 57194 
2923.57  54252 51335 50644 52821 55835 57458 
2946.71  58028 59372 61788 63870 64798 65025 
2969.85  65032 64786 64300 63798 63438 63259 
2992.99  63248 63328 63461 63747 64299 65041 
3016.14  65705 66027 65925 65520 65152 65337 
3039.28  66320 67542 68032 67586 67100 67393 
3062.42  68250 68974 69352 69671 70114 70573 
3085.56  70901 71089 71205 71286 71314 71260 
3108.70  71140 71046 71091 71330 71720 72172 
3131.85  72604 72956 73198 73334 73380 73359 
3154.99  73315 73311 73402 73627 73987 74402 
3178.13  74719 74836 74817 74792 74790 74759 
3201.27  74721 74757 74850 74896 74862 74832 
3224.41  74882 74965 74958 74845 74734 74630 
3247.55  74412 74080 73747 73368 72840 72109 
3270.70  70703 67900 64349 62586 64464 68730 
3293.84  72396 73992 74221 74001 73442 72471 
3316.98  71060 68519 63696 56870 51062 50102 
3340.12  54826 62013 67759 70795 72079 72699 
3363.26  73062 73300 73473 73552 73558 73597 
3386.40  73673 73691 73635 73584 73561 73515 
3409.55  73437 73384 73382 73397 73394 73387 
3432.69  73399 73423 73429 73407 73385 73407 
3455.83  73489 73617 73766 73908 74019 74097 
3478.97  74146 74146 74090 74034 74046 74113 
3502.11  74166 74178 74196 74274 74410 74545 
3525.25  74616 74623 74621 74660 74742 74820 
3548.40  74842 74847 74969 75248 75518 75564 
3571.54  75458 75454 75610 75779 75822 75770 
3594.68  75725 75715 75739 75824 75983 76132 
3617.82  76201 76248 76323 76305 76120 75969 
3640.96  76040 76260 76334 76113 75843 75759 
3664.11  75890 76122 76204 76028 75864 75883 
3687.25  75947 75872 75746 75750 75841 75835 
3710.39  75689 75579 75634 75802 76002 76189 
3733.53  76283 76221 76108 76067 76029 75869 
3756.67  75687 75629 75656 75647 75604 75592 
3779.81  75558 75403 75215 75173 75277 75320 
3802.96  75149 74937 74926 75135 75379 75447 
3826.10  75415 75476 75604 75576 75372 75206 
3849.24  75098 74918 74701 74587 74528 74418 
3872.38  74311 74301 74322 74253 74129 74089 
3895.52  74155 74211 74148 74014 73911 73852 
3918.66  73795 73713 73584 73398 73215 73126 
3941.81  73122 73119 73097 73108 73169 73232 
3964.95  73273 73295 73284 73223 73134 73051 
3988.09  72982 72916 72872 72874 
##END= 
