##TITLE= Mattson Instruments
##JCAMP_DX= 4.24
##OWNER= 
##ORIGIN= 
##DATA TYPE= INFRARED SPECTRUM
##YUNITS= % Transmittance
##XUNITS= 1/CM
##FIRSTX= 401.12365566
##FIRSTY= 57.44867324
##LASTX= 3999.66568195
##XFACTOR= 1.00000000
##YFACTOR= 0.00072668
##MINY= 24.05268096
##MAXY= 71.67500305
##DELTAX= 3.85695822
##NPOINTS= 934
##XYDATA= (X++(Y..Y))
401.12  79056 74986 71724 70819 72073 74431 
424.26  77893 82532 86902 89331 89682 89058 
447.40  88228 87327 86381 85419 84473 83656 
470.54  82990 82304 81420 80326 79071 77670 
493.69  76103 74323 72289 69976 67337 64299 
516.83  60726 56431 51523 46765 43484 43236 
539.97  47258 55363 65114 73092 77586 79307 
563.11  79646 79256 78299 76982 75539 74084 
586.25  72606 71014 69297 67528 65855 64426 
609.39  63305 62431 61683 60913 60006 58864 
632.54  57475 55781 53624 50925 47820 44757 
655.68  42496 41494 41854 43704 46747 50081 
678.82  53129 55582 57154 57900 58190 58207 
701.96  57988 57744 57835 58459 59497 60681 
725.10  61832 62731 63110 63287 64401 67202 
748.24  70896 74022 76081 77555 78844 80006 
771.39  81112 82250 83367 84439 85466 86418 
794.53  87305 88129 88806 89391 90006 90569 
817.67  90896 91023 90900 90232 88896 86434 
840.81  81240 72848 64918 62796 67362 74331 
863.95  79886 83836 87120 89700 91401 92579 
887.10  93428 93853 93989 94098 94150 94050 
910.24  93843 93614 93384 93084 92539 91611 
933.38  90326 88787 86898 84484 81472 77532 
956.52  72018 65510 61091 62183 68474 75667 
979.66  79867 80647 79505 77356 74344 70565 
1002.80  66120 60992 55178 48920 43234 40036 
1025.95  40832 45087 50632 55572 59024 60644 
1049.09  60720 60195 59585 58439 56537 54405 
1072.23  51993 48319 43272 38407 35181 33640 
1095.37  33570 35528 39861 45688 51608 56852 
1118.51  61393 65387 68919 72035 74766 77127 
1141.65  79120 80755 82079 83195 84221 85210 
1164.80  86139 86936 87519 87871 88064 88178 
1187.94  88188 88044 87772 87428 86993 86344 
1211.08  85275 83531 80765 76632 71351 66325 
1234.22  63611 64243 67212 70391 72316 72794 
1257.36  72027 69840 66169 62047 59420 59606 
1280.51  62212 65767 69008 71417 72982 73809 
1303.65  73955 73408 72082 69911 67066 63813 
1326.79  59940 55008 49804 46836 47967 51951 
1349.93  55823 57487 56508 54331 53806 56631 
1373.07  61404 65160 66425 65706 63600 60503 
1396.21  57655 56450 56913 57990 58893 59368 
1419.36  59394 59149 58772 58401 58478 58792 
1442.50  57504 53291 47612 44394 46596 51712 
1465.64  56038 59380 62428 64803 66485 68177 
1488.78  70073 71714 72937 73979 74860 75470 
1511.92  75711 75329 74051 71933 69333 66433 
1535.06  63032 58285 51821 45374 39984 35564 
1558.21  33099 33880 36762 40314 43689 46328 
1581.35  48687 51380 54223 56792 59052 61090 
1604.49  62849 64363 65750 66926 67701 68108 
1627.63  68387 68748 69318 70113 71153 72555 
1650.77  74238 75655 76644 77579 78595 79547 
1673.91  80367 81175 81979 82581 82943 83323 
1697.06  83887 84400 84603 84766 85104 85420 
1720.20  85474 85513 85821 86373 86927 87360 
1743.34  87787 88259 88673 88956 89167 89391 
1766.48  89640 89862 89984 89999 89993 90081 
1789.62  90321 90690 91117 91534 91892 92183 
1812.77  92452 92756 93120 93496 93741 93804 
1835.91  93860 94055 94314 94471 94523 94592 
1859.05  94737 94911 95015 95012 95000 95086 
1882.19  95254 95409 95479 95461 95396 95324 
1905.33  95242 95112 94935 94771 94655 94561 
1928.47  94486 94501 94683 95009 95376 95711 
1951.62  96013 96291 96534 96735 96880 96945 
1974.76  96923 96855 96807 96838 96965 97145 
1997.90  97309 97419 97476 97495 97498 97506 
2021.04  97514 97509 97494 97464 97390 97268 
2044.18  97146 97085 97097 97157 97244 97329 
2067.32  97356 97277 97096 96844 96526 96121 
2090.47  95579 94797 93740 92633 91894 91779 
2113.61  92174 92791 93444 94066 94593 94958 
2136.75  95166 95278 95326 95293 95160 94936 
2159.89  94637 94271 93822 93270 92655 92131 
2183.03  91899 92068 92584 93318 94175 95095 
2206.18  95989 96738 97267 97608 97851 98058 
2229.32  98236 98372 98463 98520 98550 98557 
2252.46  98555 98567 98602 98633 98629 98581 
2275.60  98489 98358 98206 98053 97902 97735 
2298.74  97531 97283 97010 96723 96396 95994 
2321.88  95522 95053 94712 94577 94545 94397 
2345.03  94121 93938 93981 94176 94281 94182 
2368.17  94033 93971 93965 93914 93780 93547 
2391.31  93028 91964 90545 89486 89240 89474 
2414.45  89641 89682 89800 89963 89995 89866 
2437.59  89608 89178 88547 87795 87073 86552 
2460.73  86364 86525 86907 87338 87686 87881 
2483.88  87920 87842 87691 87491 87254 87024 
2507.02  86888 86923 87114 87356 87559 87699 
2530.16  87769 87728 87545 87288 87126 87218 
2553.30  87595 88155 88745 89230 89526 89605 
2576.44  89475 89147 88632 87973 87242 86485 
2599.58  85686 84824 83926 83055 82269 81606 
2622.73  81100 80783 80649 80640 80655 80594 
2645.87  80373 79945 79326 78564 77663 76656 
2669.01  75802 75511 75921 76737 77594 78356 
2692.15  78978 79341 79394 79258 79052 78793 
2715.29  78516 78331 78265 78159 77834 77335 
2738.44  76944 76892 77099 77265 77164 76770 
2761.58  76166 75439 74676 73951 73311 72783 
2784.72  72372 72061 71835 71684 71596 71530 
2807.86  71417 71185 70806 70323 69807 69298 
2831.00  68790 68257 67691 67119 66579 66087 
2854.14  65633 65216 64831 64418 63828 62935 
2877.29  61858 61055 61057 62017 63503 64825 
2900.43  65622 66063 66465 66845 67014 66877 
2923.57  66267 64779 62464 60479 60062 60864 
2946.71  61278 60656 60228 61303 63465 65314 
2969.85  66231 66526 66463 66076 65660 65626 
2992.99  65914 66090 65956 65667 65355 65005 
3016.14  64615 64242 63897 63548 63166 62741 
3039.28  62279 61797 61284 60720 60130 59563 
3062.42  59014 58452 57882 57335 56809 56262 
3085.56  55669 55046 54422 53807 53205 52621 
3108.70  52060 51498 50894 50233 49540 48861 
3131.85  48218 47605 46991 46361 45737 45140 
3154.99  44555 43965 43393 42870 42387 41907 
3178.13  41418 40934 40466 40010 39549 39080 
3201.27  38623 38201 37817 37466 37145 36857 
3224.41  36606 36394 36206 36030 35878 35766 
3247.55  35684 35602 35523 35468 35442 35431 
3270.70  35427 35431 35441 35442 35428 35416 
3293.84  35423 35442 35456 35462 35478 35522 
3316.98  35614 35759 35951 36190 36499 36881 
3340.12  37299 37713 38122 38537 38956 39374 
3363.26  39802 40238 40672 41116 41600 42122 
3386.40  42644 43150 43666 44216 44786 45345 
3409.55  45883 46427 46991 47557 48109 48668 
3432.69  49261 49881 50516 51177 51880 52618 
3455.83  53377 54143 54900 55624 56310 56961 
3478.97  57589 58201 58803 59385 59939 60474 
3502.11  61004 61525 62018 62487 62969 63481 
3525.25  64004 64512 65019 65562 66166 66821 
3548.40  67481 68114 68763 69493 70267 70931 
3571.54  71427 71884 72412 72978 73475 73852 
3594.68  74154 74455 74828 75321 75926 76540 
3617.82  77036 77424 77811 78190 78421 78542 
3640.96  78773 79227 79710 79931 79986 80120 
3664.11  80409 80827 81254 81486 81552 81666 
3687.25  81889 82077 82143 82217 82412 82699 
3710.39  82962 83134 83242 83352 83543 83824 
3733.53  84044 84047 83924 83890 83956 83937 
3756.67  83815 83759 83842 83996 84158 84351 
3779.81  84557 84685 84739 84856 85113 85378 
3802.96  85424 85300 85281 85470 85700 85748 
3826.10  85698 85792 86072 86299 86281 86202 
3849.24  86254 86361 86336 86241 86224 86262 
3872.38  86254 86222 86215 86168 86030 85914 
3895.52  85926 85966 85830 85556 85382 85400 
3918.66  85507 85565 85553 85528 85549 85667 
3941.81  85854 85986 85990 85938 85903 85841 
3964.95  85719 85603 85558 85557 85554 85566 
3988.09  85621 85673 85643 85530 
##END= 
