##TITLE= Mattson Instruments
##JCAMP_DX= 4.24
##OWNER= 
##ORIGIN= 
##DATA TYPE= INFRARED SPECTRUM
##YUNITS= % Transmittance
##XUNITS= 1/CM
##FIRSTX= 401.12365566
##FIRSTY= 83.68215179
##LASTX= 3999.66568195
##XFACTOR= 1.00000000
##YFACTOR= 0.00092604
##MINY= 23.59167671
##MAXY= 84.27886199
##DELTAX= 3.85695822
##NPOINTS= 934
##XYDATA= (X++(Y..Y))
401.12  90365 90757 90848 90696 90669 90893 
424.26  91009 90960 90832 90005 87837 85394 
447.40  84698 86195 88425 89874 90291 90124 
470.54  89641 89145 89071 89259 88772 87167 
493.69  85595 85552 86878 88092 88458 88353 
516.83  87871 86836 85963 86279 87498 88346 
539.97  88246 87623 86961 86530 86574 86918 
563.11  86939 86419 85639 84421 82383 80388 
586.25  80051 81476 83058 83727 83929 84225 
609.39  84444 84366 84036 83388 82472 81704 
632.54  81299 80798 79712 78189 76604 74989 
655.68  73224 71259 69160 67268 66232 66526 
678.82  68208 70931 73920 76564 78842 80542 
701.96  81062 80579 80380 81359 82972 84016 
725.10  83948 83301 83115 83880 85046 85840 
748.24  86173 86325 86419 86510 86538 86370 
771.39  86207 85813 83535 78798 75093 76318 
794.53  80816 83771 83947 82408 77483 68375 
817.67  61108 62916 72295 81171 85152 86020 
840.81  86159 85869 85199 84699 84681 85153 
863.95  85368 83542 79400 76379 77950 82382 
887.10  84738 83323 80947 80650 82662 84513 
910.24  82979 77798 73351 73736 77367 80018 
933.38  81033 82336 83953 84729 85089 85785 
956.52  86200 85960 85926 86429 86671 86245 
979.66  85591 85076 84754 84472 83504 80988 
1002.80  77562 75653 77057 80640 83621 84808 
1025.95  84991 84618 83422 81964 80690 78091 
1049.09  73223 69207 70119 75104 79659 81640 
1072.23  81846 80423 77337 74865 75227 77100 
1095.37  77856 77492 77613 78570 79820 81252 
1118.51  82656 83363 83069 82049 80850 80257 
1141.65  80382 79653 76749 73385 72610 74583 
1164.80  76822 78104 79155 80066 79934 78855 
1187.94  78064 78089 78129 77245 75370 73151 
1211.08  71238 69920 69196 68712 67837 66163 
1234.22  63322 58287 50751 43736 42096 47208 
1257.36  55472 62791 68145 71957 73098 69063 
1280.51  59605 49960 47928 55602 66580 73753 
1303.65  76443 77518 77828 76898 75824 76176 
1326.79  77697 78767 77949 75030 71464 68770 
1349.93  66570 63972 62271 63948 68573 72459 
1373.07  73389 73284 74821 76969 76527 73486 
1396.21  71863 74200 78302 80929 81543 81276 
1419.36  80926 80272 78467 75363 72480 71503 
1442.50  71536 70677 68904 67270 66010 64940 
1465.64  64787 66332 69131 71609 72628 71061 
1488.78  65058 55832 49342 49818 56705 65169 
1511.92  70736 74242 77594 80342 81751 82442 
1535.06  82729 82494 82266 82312 82048 81199 
1558.21  79950 78555 76987 74475 69489 62556 
1581.35  58155 60052 67384 75027 78478 78020 
1604.49  76262 74057 70378 65516 62943 65401 
1627.63  70887 75756 78374 79502 80205 80536 
1650.77  80475 80488 80585 80266 79325 78022 
1673.91  76843 75996 75297 74191 72253 69443 
1697.06  65192 58639 50539 41794 32494 25475 
1720.20  25598 32353 42410 53516 62781 68748 
1743.34  72939 76419 78999 80777 82140 83042 
1766.48  83425 83597 83863 84236 84589 84817 
1789.62  84908 84987 85146 85328 85460 85527 
1812.77  85549 85555 85533 85425 85276 85217 
1835.91  85233 85214 85187 85242 85333 85358 
1859.05  85284 85090 84797 84582 84629 84870 
1882.19  85081 85166 85204 85279 85357 85382 
1905.33  85376 85389 85416 85419 85393 85357 
1928.47  85315 85252 85151 85030 84952 84958 
1951.62  85011 85047 85038 84991 84928 84867 
1974.76  84817 84779 84758 84750 84738 84710 
1997.90  84672 84619 84535 84419 84309 84257 
2021.04  84284 84350 84400 84421 84432 84434 
2044.18  84421 84399 84371 84332 84283 84234 
2067.32  84178 84117 84075 84058 84041 84003 
2090.47  83949 83889 83825 83763 83723 83727 
2113.61  83762 83797 83818 83821 83798 83744 
2136.75  83680 83637 83621 83606 83569 83506 
2159.89  83428 83348 83284 83252 83253 83260 
2183.03  83257 83243 83219 83183 83140 83097 
2206.18  83065 83040 83005 82955 82916 82914 
2229.32  82932 82933 82910 82884 82866 82847 
2252.46  82818 82774 82713 82632 82544 82479 
2275.60  82456 82464 82468 82441 82373 82260 
2298.74  82107 81934 81759 81609 81511 81477 
2321.88  81477 81471 81432 81346 81229 81156 
2345.03  81168 81190 81131 81000 80906 80909 
2368.17  80977 81082 81206 81309 81361 81368 
2391.31  81340 81283 81217 81160 81109 81043 
2414.45  80964 80888 80817 80735 80621 80481 
2437.59  80342 80229 80140 80061 79972 79867 
2460.73  79750 79629 79505 79392 79321 79310 
2483.88  79325 79325 79307 79303 79333 79385 
2507.02  79424 79431 79416 79392 79347 79267 
2530.16  79187 79159 79188 79232 79255 79259 
2553.30  79252 79228 79169 79066 78937 78806 
2576.44  78688 78578 78486 78432 78420 78427 
2599.58  78442 78489 78586 78715 78836 78921 
2622.73  78965 78970 78925 78816 78653 78492 
2645.87  78398 78382 78392 78361 78258 78101 
2669.01  77927 77746 77531 77260 76952 76650 
2692.15  76403 76281 76336 76524 76721 76843 
2715.29  76907 76945 76924 76824 76701 76626 
2738.44  76600 76590 76593 76607 76594 76521 
2761.58  76382 76175 75903 75594 75296 75056 
2784.72  74881 74706 74449 74119 73748 73296 
2807.86  72744 72122 71353 70316 69007 67331 
2831.00  65061 62447 60350 59278 58834 58340 
2854.14  57268 55268 52931 51959 53272 55652 
2877.29  57537 59056 60942 62752 63475 62853 
2900.43  61227 59070 57210 56518 56980 57584 
2923.57  57254 55779 54028 53132 53145 53079 
2946.71  52820 53994 57665 62088 64589 65121 
2969.85  66040 68637 71796 73954 74718 74436 
2992.99  73656 73238 73892 75254 76159 75972 
3016.14  75233 74882 75214 75826 76296 76593 
3039.28  76821 76937 76886 76751 76578 76315 
3062.42  76023 75913 76052 76251 76324 76300 
3085.56  76312 76404 76505 76534 76468 76324 
3108.70  76123 75881 75624 75386 75191 75052 
3131.85  74951 74841 74683 74465 74182 73824 
3154.99  73402 72975 72614 72348 72158 71992 
3178.13  71801 71563 71274 70922 70498 70046 
3201.27  69662 69376 69086 68669 68099 67456 
3224.41  66801 66124 65393 64625 63876 63178 
3247.55  62500 61812 61125 60459 59811 59175 
3270.70  58550 57929 57285 56595 55847 55019 
3293.84  54066 52949 51637 50081 48229 46088 
3316.98  43702 41096 38282 35353 32532 30157 
3340.12  28624 28248 29162 31289 34329 37856 
3363.26  41495 44991 48182 50971 53333 55280 
3386.40  56826 57996 58862 59501 59967 60321 
3409.55  60675 61154 61787 62493 63174 63786 
3432.69  64335 64836 65361 66039 66957 68066 
3455.83  69232 70349 71380 72304 73095 73747 
3478.97  74294 74774 75193 75544 75844 76119 
3502.11  76399 76709 77057 77402 77686 77886 
3525.25  78035 78176 78322 78467 78597 78704 
3548.40  78804 78926 79056 79131 79122 79099 
3571.54  79142 79219 79243 79185 79103 79078 
3594.68  79126 79188 79191 79110 78996 78935 
3617.82  78955 78992 78988 78994 79109 79279 
3640.96  79334 79190 78981 78955 79133 79339 
3664.11  79413 79266 78993 78871 78931 78912 
3687.25  78706 78543 78631 78808 78846 78742 
3710.39  78643 78601 78547 78454 78336 78195 
3733.53  78058 77979 77919 77789 77654 77695 
3756.67  77905 78121 78265 78368 78444 78422 
3779.81  78257 78047 77935 77913 77880 77845 
3802.96  77956 78218 78411 78368 78153 78003 
3826.10  77977 77887 77658 77518 77642 77793 
3849.24  77727 77546 77507 77527 77402 77222 
3872.38  77216 77321 77324 77233 77211 77241 
3895.52  77169 77015 77010 77225 77432 77460 
3918.66  77364 77286 77245 77174 77065 76936 
3941.81  76794 76689 76696 76792 76887 76946 
3964.95  76993 77042 77099 77168 77232 77250 
3988.09  77218 77168 77133 77129 
##END= 
