##TITLE= Mattson Instruments
##JCAMP_DX= 4.24
##OWNER= 
##ORIGIN= 
##DATA TYPE= INFRARED SPECTRUM
##YUNITS= % Transmittance
##XUNITS= 1/CM
##FIRSTX= 399.19517655
##FIRSTY= 39.35654830
##LASTX= 3999.66568195
##XFACTOR= 1.00000000
##YFACTOR= 0.00063368
##MINY= 10.39743518
##MAXY= 51.92536544
##DELTAX= 1.92847911
##NPOINTS= 1868
##XYDATA= (X++(Y..Y))
399.19  62107 62395 62473 62820 62914 62676 
410.76  62482 62298 61885 61179 60143 58861 
422.33  57602 56465 55407 54712 54787 55499 
433.90  56225 56499 56322 56074 56247 57079 
445.47  58382 59763 60964 61983 62901 63649 
457.04  64065 64168 64168 64169 64081 63814 
468.62  63377 62784 62066 61410 61133 61357 
480.19  61784 61992 61862 61579 61297 61004 
491.76  60696 60433 60209 59946 59645 59374 
503.33  59136 58873 58572 58242 57840 57346 
514.90  56840 56404 56011 55583 55091 54528 
526.47  53904 53281 52741 52272 51755 51087 
538.04  50288 49452 48624 47748 46745 45575 
549.61  44275 43097 42575 43198 44895 46989 
561.18  48748 49885 50530 50886 51040 51011 
572.75  50847 50622 50374 50123 49901 49719 
584.32  49526 49265 48936 48546 48032 47318 
595.90  46400 45299 44032 42831 42351 43250 
607.47  45415 47929 49886 50981 51357 51213 
619.04  50677 49849 48775 47453 45854 43988 
630.61  42100 40845 40937 42458 44696 46755 
642.18  48181 49006 49453 49708 49880 50048 
653.75  50297 50666 51162 51919 53122 54606 
665.32  55798 56315 56394 56562 57146 58222 
676.89  59674 61087 61899 61904 61449 61018 
688.46  60794 60699 60684 60775 60951 61107 
700.03  61191 61277 61435 61599 61654 61617 
711.60  61590 61587 61519 61363 61185 60983 
723.17  60667 60194 59643 59070 58392 57500 
734.75  56402 55146 53654 51816 49657 47336 
746.32  45242 44187 44881 46810 48330 48506 
757.89  48217 48871 50665 52715 54305 55404 
769.46  56246 56897 57175 56971 56677 56982 
781.03  58040 59216 59901 60125 60193 60201 
792.60  60145 60084 60026 59908 59742 59596 
804.17  59464 59292 59079 58869 58667 58443 
815.74  58184 57905 57606 57263 56875 56493 
827.31  56146 55792 55385 54939 54483 54012 
838.88  53512 52989 52463 51924 51332 50678 
850.45  50062 49656 49547 49626 49680 49565 
862.03  49279 48860 48305 47575 46592 45236 
873.60  43631 42425 42303 43066 43783 44104 
885.17  44781 46573 49178 51631 53308 54224 
896.74  54623 54630 54279 53643 52649 50924 
908.31  48348 45683 44013 43594 43975 45090 
919.88  47325 50533 53827 56406 58052 58904 
931.45  59191 59144 58899 58490 57957 57342 
943.02  56619 55729 54669 53463 52101 50540 
954.59  48818 47223 46319 46618 48132 50334 
966.16  52549 54296 55332 55589 55148 54167 
977.73  52780 51060 48970 46431 43706 41699 
989.30  41413 42929 45180 46881 47525 47522 
1000.88  47690 48627 50319 52238 53824 54843 
1012.45  55357 55497 55306 54757 53820 52500 
1024.02  50964 49745 49589 50731 52450 53654 
1035.59  53830 53197 52138 50831 49306 47590 
1047.16  45711 43702 41709 40106 39409 39919 
1058.73  41390 43127 44430 44927 44526 43308 
1070.30  41697 40561 40722 42181 44055 45359 
1081.87  45669 45052 43682 41670 39214 36838 
1093.44  35317 35014 35379 35585 35595 36188 
1105.01  38004 40917 44298 47560 50413 52781 
1116.58  54674 56129 57216 58031 58646 59084 
1128.16  59334 59381 59194 58725 57936 56790 
1139.73  55182 53071 50863 49525 49912 51930 
1151.30  54584 56873 58430 59361 59860 60071 
1162.87  60110 60036 59859 59586 59242 58848 
1174.44  58410 57918 57360 56729 56016 55199 
1186.01  54258 53173 51908 50400 48655 46879 
1197.58  45428 44524 44063 43851 43996 44874 
1209.15  46657 49034 51417 53327 54569 55174 
1220.72  55281 55044 54576 53937 53144 52189 
1232.29  51043 49703 48264 46888 45664 44501 
1243.86  43218 41723 40121 38700 37833 37747 
1255.43  38264 38783 38610 37413 35481 33682 
1267.01  33096 34382 37322 41015 44549 47504 
1278.58  49949 52090 53912 55083 55225 54155 
1290.15  51805 48341 44737 42728 43455 46301 
1301.72  49592 52160 53833 54882 55671 56550 
1313.29  57574 58420 58867 59137 59555 60091 
1324.86  60440 60406 60032 59436 58689 57805 
1336.43  56756 55508 54112 52684 51258 49800 
1348.00  48467 47694 47860 48971 50791 53096 
1359.57  55642 58043 59892 60993 61367 61100 
1371.14  60257 58908 57179 55335 53782 52827 
1382.71  52415 52169 51665 50610 49056 47649 
1394.29  47352 48484 50197 51253 51104 50029 
1405.86  48587 47323 46735 47013 47791 48409 
1417.43  48496 48197 47884 47795 48010 48580 
1429.00  49518 50665 51694 52270 52198 51491 
1440.57  50365 49128 47990 46920 45747 44505 
1452.14  43541 43131 43166 43489 44376 46288 
1463.71  49186 52428 55370 57785 59699 61158 
1475.28  62239 63058 63687 64141 64424 64551 
1486.85  64536 64392 64120 63714 63226 62814 
1498.42  62660 62816 63147 63444 63589 63590 
1509.99  63501 63356 63184 63005 62820 62616 
1521.57  62386 62130 61859 61605 61389 61205 
1533.14  61028 60836 60613 60356 60067 59756 
1544.71  59427 59076 58698 58289 57864 57456 
1556.28  57095 56787 56512 56237 55929 55563 
1567.85  55134 54667 54180 53656 53077 52466 
1579.42  51861 51276 50691 50075 49396 48641 
1590.99  47823 46965 46053 45014 43753 42217 
1602.56  40394 38261 35939 34049 33640 35324 
1614.13  38524 41835 44117 45116 45167 44669 
1625.70  43900 43053 42261 41605 41128 40832 
1637.27  40654 40438 40012 39300 38350 37262 
1648.84  36098 34866 33559 32183 30740 29205 
1660.42  27559 25853 24159 22467 20709 18936 
1671.99  17408 16488 16407 17083 18161 19231 
1683.56  20007 20356 20253 19760 19016 18209 
1695.13  17516 17073 16979 17307 18066 19192 
1706.70  20593 22186 23902 25690 27517 29359 
1718.27  31198 33020 34812 36551 38205 39755 
1729.84  41199 42550 43818 45002 46104 47140 
1741.41  48136 49104 50041 50944 51825 52700 
1752.98  53585 54484 55395 56310 57224 58147 
1764.55  59087 60033 60955 61830 62647 63392 
1776.12  64044 64607 65120 65631 66170 66740 
1787.70  67325 67884 68372 68769 69071 69274 
1799.27  69366 69352 69251 69102 68990 69049 
1810.84  69375 69937 70642 71440 72323 73244 
1822.41  74106 74841 75449 75975 76475 76980 
1833.98  77496 78016 78546 79086 79624 80139 
1845.55  80616 81033 81363 81598 81752 81854 
1857.12  81918 81941 81928 81889 81829 81742 
1868.69  81642 81571 81557 81583 81608 81612 
1880.26  81602 81601 81632 81703 81788 81837 
1891.83  81811 81705 81541 81343 81129 80917 
1903.40  80743 80652 80667 80769 80915 81065 
1914.97  81193 81282 81325 81323 81290 81253 
1926.55  81230 81215 81192 81147 81072 80968 
1938.12  80852 80741 80638 80537 80433 80317 
1949.69  80182 80038 79906 79773 79625 79486 
1961.26  79401 79376 79376 79378 79379 79367 
1972.83  79320 79236 79126 79001 78871 78743 
1984.40  78619 78505 78420 78378 78370 78371 
1995.97  78368 78358 78332 78291 78250 78211 
2007.54  78156 78067 77959 77857 77771 77688 
2019.11  77598 77499 77397 77292 77187 77091 
2030.68  77011 76934 76839 76718 76571 76400 
2042.25  76200 75978 75734 75471 75199 74937 
2053.83  74702 74514 74409 74433 74591 74838 
2065.40  75100 75315 75458 75537 75567 75558 
2076.97  75516 75450 75372 75292 75215 75145 
2088.54  75090 75052 75021 74991 74968 74955 
2100.11  74942 74924 74911 74905 74902 74900 
2111.68  74903 74901 74881 74841 74792 74736 
2123.25  74670 74601 74543 74498 74459 74422 
2134.82  74393 74370 74341 74299 74251 74206 
2146.39  74160 74102 74025 73934 73834 73733 
2157.96  73636 73546 73456 73358 73250 73134 
2169.53  73013 72891 72789 72739 72759 72827 
2181.10  72909 72978 73026 73043 73028 72990 
2192.68  72947 72901 72845 72776 72705 72649 
2204.25  72612 72589 72566 72533 72484 72424 
2215.82  72359 72287 72200 72101 71996 71896 
2227.39  71813 71757 71730 71720 71724 71743 
2238.96  71777 71810 71830 71838 71838 71826 
2250.53  71794 71752 71701 71636 71560 71492 
2262.10  71441 71388 71317 71236 71153 71067 
2273.67  70981 70903 70837 70779 70723 70665 
2285.24  70603 70540 70482 70430 70381 70343 
2296.81  70322 70309 70285 70246 70206 70174 
2308.38  70145 70112 70070 70014 69940 69848 
2319.96  69739 69615 69485 69350 69215 69087 
2331.53  68969 68859 68756 68664 68584 68508 
2343.10  68440 68400 68384 68355 68295 68230 
2354.67  68196 68192 68193 68183 68161 68132 
2366.24  68102 68065 68015 67957 67907 67871 
2377.81  67856 67870 67922 67996 68071 68138 
2389.38  68194 68238 68271 68289 68287 68265 
2400.95  68228 68178 68114 68049 67994 67944 
2412.52  67887 67821 67747 67658 67551 67441 
2424.09  67353 67290 67237 67189 67151 67124 
2435.66  67088 67024 66926 66795 66629 66432 
2447.23  66236 66082 65994 65966 65977 66012 
2458.81  66059 66110 66165 66229 66295 66342 
2470.38  66362 66364 66358 66344 66317 66279 
2481.95  66236 66202 66192 66202 66219 66247 
2493.52  66295 66358 66421 66474 66521 66559 
2505.09  66580 66581 66564 66526 66466 66390 
2516.66  66315 66247 66175 66086 65987 65893 
2528.23  65807 65724 65645 65582 65541 65511 
2539.80  65480 65449 65427 65409 65382 65344 
2551.37  65307 65275 65244 65209 65170 65117 
2562.94  65043 64953 64861 64777 64707 64651 
2574.51  64603 64553 64497 64441 64396 64365 
2586.09  64343 64321 64294 64262 64226 64185 
2597.66  64144 64104 64054 63991 63929 63885 
2609.23  63856 63827 63789 63747 63709 63664 
2620.80  63592 63483 63357 63233 63113 63010 
2632.37  62948 62923 62912 62913 62938 62975 
2643.94  62994 62989 62975 62956 62928 62894 
2655.51  62859 62819 62763 62692 62611 62525 
2667.08  62440 62362 62288 62213 62128 62033 
2678.65  61936 61851 61782 61715 61638 61558 
2690.22  61488 61423 61356 61291 61233 61178 
2701.79  61124 61072 61017 60947 60859 60764 
2713.37  60673 60589 60502 60413 60330 60256 
2724.94  60180 60092 60002 59911 59807 59682 
2736.51  59555 59435 59308 59157 58993 58832 
2748.08  58676 58523 58385 58279 58204 58142 
2759.65  58074 57985 57873 57751 57643 57556 
2771.22  57479 57394 57298 57195 57080 56945 
2782.79  56787 56614 56430 56233 56019 55792 
2794.36  55555 55308 55055 54796 54527 54254 
2805.93  53994 53755 53536 53338 53161 52980 
2817.50  52775 52555 52355 52198 52093 52059 
2829.07  52123 52289 52539 52839 53163 53495 
2840.64  53810 54078 54282 54434 54553 54635 
2852.22  54669 54663 54632 54581 54512 54435 
2863.79  54356 54270 54171 54063 53963 53886 
2875.36  53830 53779 53718 53634 53522 53394 
2886.93  53281 53206 53149 53052 52860 52530 
2898.50  52018 51281 50359 49466 48967 49162 
2910.07  50030 51212 52279 53010 53421 53620 
2921.64  53683 53633 53477 53227 52890 52500 
2933.21  52171 52065 52248 52614 52967 53154 
2944.78  53129 52907 52498 51939 51413 51229 
2956.35  51546 52154 52651 52772 52497 51944 
2967.92  51318 50876 50798 51080 51568 52078 
2979.50  52473 52697 52768 52732 52628 52481 
2991.07  52295 52060 51780 51479 51171 50833 
3002.64  50446 50012 49554 49121 48797 48650 
3014.21  48665 48746 48793 48768 48674 48527 
3025.78  48343 48149 47962 47777 47587 47411 
3037.35  47268 47158 47065 46990 46941 46925 
3048.92  46941 46988 47057 47134 47209 47275 
3060.49  47333 47390 47463 47565 47691 47825 
3072.06  47952 48034 48033 48050 48357 49154 
3083.63  50300 51396 52151 52552 52718 52734 
3095.20  52638 52469 52268 52066 51890 51758 
3106.77  51679 51660 51703 51795 51924 52084 
3118.35  52259 52429 52570 52659 52682 52644 
3129.92  52573 52486 52381 52251 52087 51887 
3141.49  51659 51427 51203 50981 50768 50593 
3153.06  50472 50386 50310 50242 50185 50123 
3164.63  50048 49959 49853 49725 49580 49438 
3176.20  49307 49181 49058 48951 48872 48820 
3187.77  48791 48789 48819 48877 48950 49027 
3199.34  49104 49181 49266 49366 49470 49566 
3210.91  49661 49757 49839 49899 49956 50023 
3222.48  50081 50108 50112 50112 50107 50095 
3234.05  50080 50053 50000 49933 49874 49822 
3245.63  49753 49667 49589 49526 49462 49380 
3257.20  49277 49151 49009 48866 48728 48589 
3268.77  48437 48271 48096 47918 47727 47514 
3280.34  47292 47093 46915 46722 46489 46237 
3291.91  45989 45747 45497 45229 44945 44654 
3303.48  44360 44068 43782 43493 43184 42843 
3315.05  42483 42121 41756 41374 40967 40538 
3326.62  40100 39680 39308 38994 38723 38475 
3338.19  38244 38026 37802 37561 37317 37092 
3349.76  36885 36679 36460 36231 36004 35791 
3361.33  35599 35411 35211 35003 34799 34594 
3372.90  34374 34142 33903 33651 33372 33067 
3384.48  32748 32428 32116 31811 31506 31207 
3396.05  30950 30768 30660 30618 30661 30820 
3407.62  31098 31472 31935 32502 33170 33909 
3419.19  34687 35493 36330 37197 38069 38917 
3430.76  39743 40565 41379 42169 42931 43685 
3442.33  44445 45208 45971 46734 47488 48214 
3453.90  48904 49578 50266 50978 51701 52422 
3465.47  53141 53846 54517 55159 55791 56405 
3477.04  56989 57557 58122 58659 59145 59596 
3488.61  60025 60413 60752 61075 61402 61711 
3500.18  61981 62217 62431 62636 62854 63083 
3511.76  63293 63467 63621 63777 63931 64071 
3523.33  64193 64302 64418 64548 64668 64760 
3534.90  64836 64914 64978 65013 65038 65085 
3546.47  65149 65202 65237 65272 65325 65390 
3558.04  65449 65499 65556 65621 65680 65728 
3569.61  65777 65832 65886 65940 66011 66103 
3581.18  66187 66239 66261 66287 66336 66401 
3592.75  66460 66499 66517 66530 66551 66578 
3604.32  66602 66627 66663 66707 66742 66767 
3615.89  66786 66802 66816 66838 66869 66890 
3627.46  66883 66858 66839 66833 66829 66820 
3639.04  66806 66789 66773 66752 66723 66694 
3650.61  66680 66680 66675 66668 66669 66676 
3662.18  66676 66663 66641 66621 66607 66583 
3673.75  66531 66469 66429 66408 66387 66376 
3685.32  66381 66367 66319 66273 66247 66211 
3696.89  66150 66084 66022 65966 65938 65946 
3708.46  65950 65915 65863 65828 65813 65807 
3720.03  65799 65774 65734 65702 65681 65650 
3731.60  65604 65560 65524 65495 65479 65476 
3743.17  65463 65430 65394 65369 65345 65308 
3754.74  65259 65211 65173 65148 65134 65121 
3766.31  65096 65052 64997 64952 64922 64891 
3777.89  64846 64795 64753 64725 64705 64681 
3789.46  64649 64616 64599 64605 64613 64603 
3801.03  64583 64567 64548 64512 64465 64415 
3812.60  64352 64285 64236 64204 64160 64101 
3824.17  64056 64029 64003 63983 63977 63963 
3835.74  63908 63830 63779 63771 63769 63754 
3847.31  63754 63776 63772 63716 63660 63657 
3858.88  63691 63714 63712 63684 63633 63585 
3870.45  63564 63556 63533 63503 63494 63499 
3882.02  63488 63451 63404 63361 63314 63264 
3893.59  63233 63235 63250 63255 63248 63237 
3905.17  63226 63209 63182 63145 63113 63097 
3916.74  63090 63072 63040 63008 62978 62944 
3928.31  62899 62843 62786 62733 62697 62690 
3939.88  62708 62722 62707 62675 62647 62617 
3951.45  62574 62528 62506 62507 62511 62502 
3963.02  62489 62481 62470 62441 62399 62365 
3974.59  62348 62339 62330 62325 62327 62330 
3986.16  62328 62320 62308 62300 62287 62246 
3997.73  62186 62150 
##END= 
