##TITLE= Mattson Instruments
##JCAMP_DX= 4.24
##OWNER= 
##ORIGIN= 
##DATA TYPE= INFRARED SPECTRUM
##YUNITS= % Transmittance
##XUNITS= 1/CM
##FIRSTX= 401.12365566
##FIRSTY= 50.11589431
##LASTX= 3999.66568195
##XFACTOR= 1.00000000
##YFACTOR= 0.00071150
##MINY= 17.11709403
##MAXY= 63.74489593
##DELTAX= 3.85695822
##NPOINTS= 934
##XYDATA= (X++(Y..Y))
401.12  70436 72663 75601 78207 79908 80518 
424.26  79300 75494 70527 68286 71620 78591 
447.40  84573 87533 88502 88866 88999 88842 
470.54  88469 88045 87557 86882 85979 84699 
493.69  82624 79872 77908 78385 80807 83037 
516.83  83837 83628 83217 82799 82273 81661 
539.97  81008 80304 79558 78801 78040 77264 
563.11  76495 75742 74972 74117 73162 72142 
586.25  71071 69921 68735 67498 66194 64849 
609.39  63437 61903 60307 58661 56897 54979 
632.54  52969 50779 48377 45959 43383 40390 
655.68  37885 37085 37392 36734 34714 33688 
678.82  35631 40915 48791 57332 64372 69036 
701.96  72076 74447 76267 77592 78782 79398 
725.10  78174 74700 70216 66406 64043 62991 
748.24  63180 65078 68790 73249 76905 79045 
771.39  80026 80516 80855 81105 81259 81353 
794.53  81406 81410 81411 81450 81426 81295 
817.67  80998 80187 78427 75306 69889 61517 
840.81  52562 48404 52024 60186 67232 70840 
863.95  71984 71670 70188 67971 65369 62743 
887.10  61302 62364 65588 69215 71956 73699 
910.24  74797 75521 76026 76370 76565 76611 
933.38  76521 76352 76209 76157 76153 75967 
956.52  75236 73989 72862 72156 71253 69541 
979.66  66859 62529 55929 48976 45725 48232 
1002.80  54804 62813 70788 77477 81569 83051 
1025.95  83167 82859 82243 81288 80182 78986 
1049.09  77212 74350 71427 70963 73930 77899 
1072.23  79888 79735 79053 78508 77777 76898 
1095.37  76244 75887 75586 75036 74080 72710 
1118.51  70798 68288 65617 63128 60558 58446 
1141.65  59021 63654 70251 75203 77172 77380 
1164.80  77155 76766 76089 75071 73601 71719 
1187.94  70051 69365 69501 69530 69013 67781 
1211.08  64818 59842 55964 57351 63653 69994 
1234.22  72973 73386 73055 72379 71377 70498 
1257.36  69889 69319 68762 68273 67685 66889 
1280.51  65955 64911 63747 62473 60968 59086 
1303.65  56856 54184 50742 46651 42788 39892 
1326.79  37852 36358 35837 37501 42271 49392 
1349.93  56673 62211 65621 67683 69048 69765 
1373.07  69720 68925 67643 66161 64410 62389 
1396.21  60422 57849 53332 48242 46954 52596 
1419.36  62238 68618 70001 69705 69538 69187 
1442.50  68559 67956 67249 66270 65294 64559 
1465.64  63857 62968 61919 60902 59747 58027 
1488.78  56143 55729 57080 58330 57905 56090 
1511.92  54392 52934 51016 48688 46497 44475 
1535.06  42359 39799 36847 34369 32676 31875 
1558.21  33024 36631 41455 47077 53155 58092 
1581.35  61205 63342 64289 62562 58322 54754 
1604.49  54707 56923 57684 55195 50578 45475 
1627.63  40528 36762 36013 38235 40910 41880 
1650.77  39497 34251 29268 25672 24057 26198 
1673.91  31861 38769 46206 53579 59243 63254 
1697.06  67175 71657 75348 77740 79448 80834 
1720.20  82034 83013 83572 83679 83780 84195 
1743.34  84659 85005 85338 85748 86263 86885 
1766.48  87537 88189 88848 89371 89591 89544 
1789.62  89402 89343 89430 89540 89477 89259 
1812.77  89138 89234 89376 89402 89334 89244 
1835.91  89085 88773 88352 88006 87802 87565 
1859.05  87098 86400 85708 85333 85340 85499 
1882.19  85608 85659 85714 85771 85813 85840 
1905.33  85811 85686 85489 85187 84651 83948 
1928.47  83441 83394 83656 83813 83551 82873 
1951.62  82084 81609 81713 82237 82665 82586 
1974.76  82068 81559 81445 81706 82011 82129 
1997.90  82132 82149 82161 82109 81989 81805 
2021.04  81552 81287 81085 80975 80946 80975 
2044.18  81023 81061 81080 81064 80998 80895 
2067.32  80782 80671 80574 80496 80414 80309 
2090.47  80195 80079 79940 79774 79603 79430 
2113.61  79248 79090 79024 79085 79222 79342 
2136.75  79398 79404 79370 79292 79188 79100 
2159.89  79027 78921 78766 78620 78556 78563 
2183.03  78560 78514 78462 78426 78370 78258 
2206.18  78115 77987 77901 77855 77837 77828 
2229.32  77804 77743 77645 77525 77386 77210 
2252.46  76987 76733 76486 76303 76231 76265 
2275.60  76336 76376 76360 76286 76140 75908 
2298.74  75581 75166 74692 74226 73869 73675 
2321.88  73612 73613 73628 73628 73631 73702 
2345.03  73823 73857 73703 73403 73139 73031 
2368.17  73028 73105 73293 73579 73894 74141 
2391.31  74250 74229 74137 74024 73905 73782 
2414.45  73669 73573 73469 73315 73096 72833 
2437.59  72561 72293 72028 71790 71632 71576 
2460.73  71577 71572 71546 71536 71577 71663 
2483.88  71765 71848 71894 71903 71881 71826 
2507.02  71724 71564 71357 71124 70890 70668 
2530.16  70468 70304 70190 70126 70097 70088 
2553.30  70107 70161 70216 70224 70177 70110 
2576.44  70036 69926 69773 69603 69431 69241 
2599.58  69026 68806 68582 68333 68051 67743 
2622.73  67418 67088 66768 66444 66084 65689 
2645.87  65286 64884 64482 64119 63843 63654 
2669.01  63524 63451 63447 63497 63579 63688 
2692.15  63824 63963 64069 64117 64103 64044 
2715.29  63948 63800 63580 63304 63021 62772 
2738.44  62561 62373 62186 61983 61753 61500 
2761.58  61241 60996 60765 60537 60302 60048 
2784.72  59757 59421 59040 58603 58093 57521 
2807.86  56942 56404 55891 55363 54805 54227 
2831.00  53615 52935 52173 51360 50544 49789 
2854.14  49173 48760 48564 48559 48692 48901 
2877.29  49110 49276 49389 49461 49489 49449 
2900.43  49309 49064 48706 48221 47607 46890 
2923.57  46095 45227 44315 43444 42716 42193 
2946.71  41868 41686 41572 41456 41272 40984 
2969.85  40600 40151 39649 39094 38510 37940 
2992.99  37400 36857 36280 35731 35350 35223 
3016.14  35314 35553 35907 36334 36723 36895 
3039.28  36692 36151 35648 35645 36174 36795 
3062.42  37145 37246 37225 37028 36502 35588 
3085.56  34359 32971 31549 30111 28681 27450 
3108.70  26707 26610 27135 28195 29715 31598 
3131.85  33691 35784 37661 39162 40231 40914 
3154.99  41321 41528 41568 41517 41512 41639 
3178.13  41859 42107 42384 42682 42910 42987 
3201.27  42958 42952 43029 43132 43222 43356 
3224.41  43598 43902 44182 44466 44870 45459 
3247.55  46227 47146 48149 49110 49915 50531 
3270.70  50949 51118 51022 50768 50446 49870 
3293.84  48697 47058 45894 46237 48182 50866 
3316.98  53450 55664 57500 58952 60080 60964 
3340.12  61593 61988 62277 62547 62760 62897 
3363.26  63021 63147 63210 63177 63108 63082 
3386.40  63098 63080 62995 62909 62886 62887 
3409.55  62841 62754 62678 62614 62535 62469 
3432.69  62456 62472 62475 62489 62556 62641 
3455.83  62686 62701 62736 62804 62885 62957 
3478.97  63012 63067 63149 63255 63341 63371 
3502.11  63362 63373 63452 63576 63669 63711 
3525.25  63784 63942 64109 64192 64205 64226 
3548.40  64301 64424 64546 64610 64635 64753 
3571.54  65026 65321 65499 65559 65624 65792 
3594.68  66029 66252 66423 66548 66653 66770 
3617.82  66913 67053 67174 67327 67553 67763 
3640.96  67850 67796 67723 67790 67967 68126 
3664.11  68170 68043 67826 67760 67861 67927 
3687.25  67914 67974 68166 68323 68329 68249 
3710.39  68225 68250 68199 68057 67915 67826 
3733.53  67779 67756 67732 67694 67713 67872 
3756.67  68073 68172 68161 68149 68202 68244 
3779.81  68197 68103 68043 67982 67824 67596 
3802.96  67491 67568 67639 67578 67472 67506 
3826.10  67638 67675 67568 67489 67555 67582 
3849.24  67415 67190 67162 67227 67162 67021 
3872.38  67028 67160 67211 67134 67079 67101 
3895.52  67064 66888 66715 66688 66715 66687 
3918.66  66615 66555 66500 66446 66432 66456 
3941.81  66462 66437 66428 66467 66536 66603 
3964.95  66655 66698 66727 66734 66726 66719 
3988.09  66704 66647 66542 66426 
##END= 
