##TITLE= Mattson Instruments
##JCAMP_DX= 4.24
##OWNER= 
##ORIGIN= 
##DATA TYPE= INFRARED SPECTRUM
##YUNITS= % Transmittance
##XUNITS= 1/CM
##FIRSTX= 401.12365566
##FIRSTY= 67.06845855
##LASTX= 3999.66568195
##XFACTOR= 1.00000000
##YFACTOR= 0.00060240
##MINY= 28.46212577
##MAXY= 67.94009399
##DELTAX= 3.85695822
##NPOINTS= 934
##XYDATA= (X++(Y..Y))
401.12  111334 109856 108523 107345 105967 104075 
424.26  101996 100151 98584 97221 95983 94968 
447.40  94534 95016 96427 98360 100245 101790 
470.54  102994 104005 104993 106017 107052 108064 
493.69  109004 109851 110583 111093 111266 111169 
516.83  110781 109614 107382 105113 104624 106553 
539.97  109451 111250 111327 110640 109941 108822 
563.11  107024 105738 106432 108824 111166 112306 
586.25  112501 112387 112125 111642 111064 110510 
609.39  109810 108826 107654 105900 102625 98224 
632.54  95375 96361 99966 102907 103840 103772 
655.68  103724 103881 104298 104769 104523 103143 
678.82  100640 96718 91594 86541 82444 79372 
701.96  78320 81361 88933 98330 105717 108521 
725.10  106587 102959 102105 105298 109345 111079 
748.24  110653 109439 107752 105207 101151 95409 
771.39  90373 90323 96432 104492 109661 111257 
794.53  111241 110462 108662 106278 103456 98466 
817.67  90517 83476 82875 88862 95682 98583 
840.81  97967 96285 94079 90334 85128 80616 
863.95  79127 80635 82999 84783 86520 89002 
887.10  91998 95063 98174 101073 103131 104272 
910.24  105241 106461 107375 107558 107675 108503 
933.38  109760 110734 111240 111300 110916 110589 
956.52  110986 111920 112551 112516 112100 111574 
979.66  110934 110125 109206 108226 107084 105743 
1002.80  104296 102578 100253 97399 93775 87958 
1025.95  79886 73826 74572 80536 84975 83700 
1049.09  77802 70221 63841 62004 66585 75538 
1072.23  84762 91813 96524 99433 101066 101906 
1095.37  102166 101898 101275 100361 99011 97111 
1118.51  94293 89957 84809 81231 79916 77517 
1141.65  70870 62744 59694 64216 72213 78286 
1164.80  80450 79251 75351 69647 64107 60606 
1187.94  59360 59578 61107 63986 66674 66611 
1211.08  63115 58397 55163 53951 53223 51639 
1234.22  49865 50043 53516 59279 64731 67384 
1257.36  65865 60667 54695 51957 54529 61022 
1280.51  68494 75067 80299 84285 87342 89976 
1303.65  92531 94928 96623 96547 93862 89599 
1326.79  86559 86725 89634 93202 95577 96267 
1349.93  95645 94165 92265 90467 89109 87899 
1373.07  86319 84927 85447 88660 93146 96736 
1396.21  98706 99674 99903 99317 98004 95588 
1419.36  91463 86062 79814 72323 64974 61584 
1442.50  63251 67054 70559 73152 75063 77233 
1465.64  81039 87190 93969 97623 97862 96499 
1488.78  93509 89072 85448 82986 78359 68995 
1511.92  59608 56357 61227 71632 81001 87193 
1535.06  92145 96772 100186 102173 103528 104649 
1558.21  105691 106403 106577 106539 106642 106829 
1581.35  106771 106198 104795 102402 98964 94117 
1604.49  88307 84191 84907 90868 98368 103040 
1627.63  104769 105490 105863 105687 105241 104895 
1650.77  104653 104498 104504 104555 104375 103688 
1673.91  102551 101142 99431 97566 95943 94501 
1697.06  92383 88264 82678 77064 71867 68504 
1720.20  68287 69436 70114 69092 65222 59754 
1743.34  55341 54061 57062 63190 70145 76537 
1766.48  81959 86535 90324 93206 95461 97544 
1789.62  99498 101049 102146 102976 103672 104296 
1812.77  104843 105289 105699 106129 106507 106807 
1835.91  107179 107677 108145 108417 108520 108602 
1859.05  108806 109074 109030 108519 108145 108547 
1882.19  109586 110622 111241 111551 111778 111972 
1905.33  112123 112265 112414 112535 112579 112546 
1928.47  112507 112519 112558 112550 112467 112357 
1951.62  112292 112319 112420 112511 112507 112396 
1974.76  112207 112007 111914 112025 112273 112490 
1997.90  112613 112698 112763 112781 112756 112705 
2021.04  112613 112475 112300 112062 111747 111430 
2044.18  111198 111020 110830 110701 110784 111082 
2067.32  111418 111642 111743 111761 111722 111644 
2090.47  111524 111334 111095 110905 110851 110924 
2113.61  111063 111227 111397 111551 111659 111702 
2136.75  111699 111692 111695 111675 111598 111484 
2159.89  111385 111319 111250 111151 111052 111009 
2183.03  111031 111092 111170 111239 111254 111200 
2206.18  111112 111023 110913 110774 110659 110626 
2229.32  110647 110644 110588 110517 110446 110342 
2252.46  110184 110005 109854 109743 109630 109464 
2275.60  109231 108967 108739 108658 108577 108496 
2298.74  108415 108334 108253 108172 108091 108010 
2321.88  107928 107847 107766 107685 107604 107523 
2345.03  107442 107361 107280 107199 107118 107036 
2368.17  106955 106874 106793 106712 106631 106550 
2391.31  106469 106266 106019 105704 105332 104905 
2414.45  104454 104017 103585 103142 102737 102459 
2437.59  102342 102338 102357 102321 102183 101942 
2460.73  101620 101244 100857 100517 100272 100135 
2483.88  100081 100056 100006 99904 99785 99708 
2507.02  99704 99745 99774 99753 99675 99549 
2530.16  99385 99199 99014 98832 98638 98425 
2553.30  98197 97959 97709 97452 97183 96890 
2576.44  96562 96203 95808 95368 94898 94434 
2599.58  94019 93684 93435 93269 93195 93228 
2622.73  93356 93525 93678 93783 93836 93859 
2645.87  93895 93977 94107 94269 94449 94628 
2669.01  94791 94931 95046 95122 95153 95148 
2692.15  95122 95084 95033 94959 94856 94745 
2715.29  94657 94570 94412 94156 93845 93517 
2738.44  93155 92737 92280 91839 91466 91183 
2761.58  90965 90754 90476 90097 89650 89196 
2784.72  88752 88314 87891 87481 87061 86653 
2807.86  86317 86055 85789 85439 84983 84439 
2831.00  83803 82949 81724 80345 79495 79671 
2854.14  80493 81077 81015 80582 80116 79642 
2877.29  79082 78469 77892 77374 76832 76146 
2900.43  75306 74432 73576 72666 71673 70609 
2923.57  69347 67881 66777 66830 68102 69738 
2946.71  70820 71111 70903 70446 69715 68698 
2969.85  67749 67425 67867 68604 69131 69409 
2992.99  69606 69712 69660 69528 69412 69289 
3016.14  69095 68815 68465 68133 67985 68098 
3039.28  68345 68520 68544 68505 68500 68489 
3062.42  68364 68132 67934 67848 67805 67757 
3085.56  67781 67949 68202 68410 68503 68487 
3108.70  68406 68295 68168 68032 67901 67786 
3131.85  67685 67595 67507 67398 67256 67132 
3154.99  67087 67097 67079 67030 67023 67069 
3178.13  67077 66987 66853 66740 66627 66466 
3201.27  66307 66256 66304 66327 66273 66230 
3224.41  66250 66233 66078 65825 65557 65260 
3247.55  64882 64453 64038 63627 63169 62666 
3270.70  62165 61658 61087 60439 59754 59054 
3293.84  58322 57552 56756 55926 55040 54120 
3316.98  53202 52285 51363 50463 49629 48878 
3340.12  48228 47716 47384 47247 47276 47428 
3363.26  47696 48076 48519 48956 49371 49784 
3386.40  50194 50589 50984 51421 51936 52522 
3409.55  53157 53855 54639 55474 56300 57120 
3432.69  57977 58885 59859 60939 62108 63296 
3455.83  64499 65757 67024 68195 69270 70368 
3478.97  71564 72816 74069 75346 76688 78028 
3502.11  79261 80380 81456 82500 83486 84430 
3525.25  85358 86254 87136 88069 89059 90008 
3548.40  90825 91544 92282 93081 93839 94383 
3571.54  94749 95159 95735 96416 97067 97604 
3594.68  98045 98431 98810 99243 99731 100157 
3617.82  100448 100726 101086 101362 101375 101340 
3640.96  101523 101897 102146 102071 101942 101999 
3664.11  102267 102682 103051 103152 103136 103237 
3687.25  103417 103460 103328 103187 103092 102981 
3710.39  102857 102809 102864 102984 103191 103540 
3733.53  103921 104099 104104 104147 104193 104011 
3756.67  103688 103473 103412 103379 103339 103390 
3779.81  103542 103658 103697 103788 103998 104166 
3802.96  104068 103815 103692 103786 103939 103894 
3826.10  103700 103612 103688 103681 103415 103107 
3849.24  102958 102980 103052 103094 103112 103093 
3872.38  103033 102929 102732 102430 102159 102034 
3895.52  102008 101979 101919 101905 102013 102213 
3918.66  102381 102420 102359 102237 102075 101960 
3941.81  101967 102041 102092 102125 102185 102259 
3964.95  102334 102425 102494 102489 102451 102463 
3988.09  102513 102534 102519 102505 
##END= 
